t,x,y,ang,vx,vy,omega,thrust,torque
0.0,-0.10800790190967358,4.956390354442806,5.68655810708098,-2.9935448260891784,-2.0636179076711567,4.647118455769258,100.82847946707092,-119.22084769658416
0.0025,-0.1154694933255204,4.951230043008106,5.698126808477408,-2.9757723718896374,-2.0646039603199866,4.607859271036751,101.44257125479194,-119.14454259659107
0.005,-0.12288687855597387,4.946067629542762,5.709597508371551,-2.9581800505241946,-2.065300124050256,4.568717204391177,102.04533895150955,-119.06063678974124
0.0075,-0.13026051294612634,4.940903832559769,5.720970501377972,-2.940771854450537,-2.065711367429508,4.529693710694716,102.63678255722358,-118.96913027603456
0.01,-0.13759086161803144,4.93573935806901,5.732246085743781,-2.9235516129606216,-2.0658427238808756,4.490790241121118,103.21690207193416,-118.87002305547117
0.0125,-0.14487839906379107,4.930574899420958,5.743424563339417,-2.9065229929939265,-2.0656992870201694,4.452008243165055,103.78569749564124,-118.76331512805096
0.015,-0.15212360874081923,4.925411137161912,5.754506239649469,-2.8896895000651206,-2.0652862060991737,4.413349160651451,104.34316882834483,-118.64900649377401
0.0175,-0.15932698266956255,4.920248738900482,5.765491423763511,-2.8730544793010693,-2.064608681556171,4.374814433744784,104.88931607004493,-118.52709715264027
0.02,-0.16648902103394453,4.915088359185072,5.776380428366962,-2.856621116582165,-2.0636719606745415,4.336405498958364,105.42413922074154,-118.39758710464977
0.0225,-0.17361023178478807,4.909930639392072,5.787173569731968,-2.8403924397830527,-2.0624813333501284,4.298123789163592,105.94763828043465,-118.26047634980249
0.025,-0.18069113024645878,4.904776207624502,5.797871167708315,-2.824371320107916,-2.061042127967885,4.259970733599194,106.45981324912424,-118.11576488809838
0.0275,-0.18773223872695952,4.899625678620821,5.808473545714349,-2.8085604735155654,-2.059359707388184,4.221947757880429,106.96066412681034,-117.96345271953754
0.03,-0.1947340861316947,4.89447965367364,5.818981030727938,-2.7929624622296743,-2.0574394650430055,4.184056284008275,107.45019091349296,-117.8035398441199
0.0325,-0.20169720758111184,4.889338720558048,5.829393953277445,-2.7775796963295947,-2.0552868211420963,4.146297730378594,107.92839360917209,-117.6360262618455
0.035,-0.20862214403241558,4.884203453469295,5.839712647432723,-2.7624144354172797,-2.0529072189890463,4.10867351179127,108.39527221384772,-117.46091197271433
0.0375,-0.21550944190553975,4.879074412969539,5.8499374507961415,-2.747468790355942,-2.0503061214071026,4.071185039459327,108.85082672751987,-117.27819697672636
0.04,-0.22235965271355082,4.873952145943394,5.860068704493626,-2.73274472507617,-2.0474890072744225,4.033833721018021,109.29505715018853,-117.08788127388166
0.0425,-0.22917333269764636,4.868837185562013,5.8701067531657305,-2.7182440584453293,-2.0444613681683452,3.9966209605339116,109.72796348185368,-116.88996486418012
0.045,-0.2359510424669018,4.863730051255406,5.880051944958721,-2.7039684661961707,-2.0412287051181552,3.9595481585139103,110.14954572251536,-116.68444774762186
0.0475,-0.2426933466429081,4.858631248692755,5.889904631515693,-2.689919482910676,-2.0377965254656996,3.9226167119143036,110.55980387217349,-116.47132992420678
0.05,-0.24940081350943408,4.853541269770444,5.899665167967701,-2.6760985040552683,-2.0341703398331235,3.885828014149755,110.95873793082816,-116.25061139393496
0.0525,-0.2560740146672366,4.848460592607526,5.909333912924922,-2.662506788063617,-2.030355659196898,3.8491834551022848,111.34634789847937,-116.02229215680636
0.055,-0.2627135246941335,4.8433896815483815,5.918911228467828,-2.649145458463377,-2.026357992067213,3.8126844211302244,111.72263377512702,-115.78637221282094
0.0575,-0.2693199208104438,4.8383289871722965,5.928397480138395,-2.6360155060432935,-2.0221828417717362,3.7763322950771516,112.08759556077126,-115.54285156197881
0.06,-0.27589378254989316,4.833278946309701,5.937793036931321,-2.6231177910572203,-2.017835703842653,3.7401284562808006,112.44123325541193,-115.29173020427984
0.0625,-0.28243569143607095,4.82823998206481,5.947098271285277,-2.610453045461688,-2.0133220635058224,3.70407428058195,112.78354685904914,-115.03300813972413
0.065,-0.28894623066452013,4.823212503844419,5.956313559074173,-2.5980218751837723,-2.008647393270828,3.668171140333288,113.11453637168285,-114.76668536831161
0.0675,-0.29542598479053117,4.818196907392598,5.965439279598451,-2.585824762416109,-2.0038171506206233,3.6324204044082573,113.43420179331308,-114.49276189004236
0.07,-0.3018755394227037,4.813193574831035,5.974475815576395,-2.573862067936003,-1.998836775799416,3.596823438209874,113.7425431239398,-114.2112377049163
0.0725,-0.308295480922333,4.808202874704796,5.983423553135468,-2.5621340334456826,-1.9937116896973823,3.561381603679526,114.03956036356303,-113.92211281293348
0.075,-0.31468639610867066,4.803225162033246,5.992282881803671,-2.550640783930847,-1.9884472918307403,3.5260962593057505,114.32525351218277,-113.62538721409388
0.0775,-0.32104887197010096,4.798260778365906,6.001054194500917,-2.539382330034755,-1.9830489584156752,3.4909687601329873,114.59962256979901,-113.32106090839751
0.08,-0.32738349538126915,4.793310051843012,6.0097378875304335,-2.5283585704451994,-1.9775220405345524,3.456000457770309,114.86266753641178,-113.00913389584436
0.0825,-0.33369085282619054,4.788373297260536,6.018334360570188,-2.5175692942918095,-1.9718718623928253,3.4211927004001326,115.11438841202103,-112.68960617643442
0.085,-0.3399715301273628,4.7834508161394655,6.026844016664328,-2.507014183551217,-1.9661037196649975,3.3865468327869053,115.35478519662678,-112.36247775016773
0.08750000000000001,-0.3462261121808986,4.778542896799096,6.035267262214649,-2.49669281545772,-1.9602228779279751,3.352064196285771,115.58385789022907,-112.02774861704424
0.09,-0.35245518269768905,4.773649814434145,6.043604506972083,-2.48660466491716,-1.9542345711801055,3.317746128851213,115.80160649282783,-111.68541877706397
0.0925,-0.35865932395060346,4.76877183119545,6.051856164028204,-2.4767491069218366,-1.9481440004441815,3.2835939650456756,116.00803100442312,-111.33548823022691
0.095,-0.3648391165277254,4.76390919627407,6.060022649806763,-2.467125418964355,-1.941956332452661,3.2496090360481635,116.2031314250149,-110.97795697653314
0.0975,-0.37099513909161974,4.759062145988557,6.068104384055237,-2.4577327834484013,-1.9356766984133305,3.2157926696628207,116.38690775460321,-110.61282501598254
0.1,-0.37712796814462074,4.754230903875234,6.076101789836405,-2.4485702900945214,-1.9293101928536305,3.1821461903274857,116.55935999318801,-110.24009234857516
0.10250000000000001,-0.38323817780012603,4.749415680781246,6.084015293519939,-2.4396369383390697,-1.9228618725418392,3.148670919122226,116.72048814076929,-109.859758974311
0.105,-0.3893263395598779,4.74461667496023,6.091845324774026,-2.4309316397245677,-1.916336755483302,3.1153681737778505,116.87029219734713,-109.4718248931901
0.1075,-0.3953930220972073,4.739834072170389,6.099592316557,-2.422453220279802,-1.9097398199898865,3.082239268684402,117.00877216292143,-109.0762901052124
0.11,-0.4014387910462139,4.735068045774817,6.1072567051090045,-2.4142004228880647,-1.9030760038208339,3.049285514899625,117.13592803749228,-108.67315461037794
0.1125,-0.4074642087968501,4.730318756843873,6.11483892994367,-2.406171909642022,-1.8963502033931738,3.016508220157416,117.25175982105961,-108.2624184086867
0.115,-0.41346983429587375,4.725586354259449,6.122339433839817,-2.398366264183768,-1.8895672730598692,2.9839086888762476,117.35626751362345,-107.84408150013867
0.11750000000000001,-0.4194562228536312,4.720870974820959,6.129758662833173,-2.3907819940286923,-1.8827320244538548,2.9514882221675767,117.44945111518379,-107.41814388473387
0.12,-0.4254239259566279,4.716172743352887,6.137097066208123,-2.3834175328718747,-1.8758492258961401,2.919248117844227,117.53131062574063,-106.98460556247227
0.1225,-0.43137349108584233,4.71149177281374,6.144355096489469,-2.3762712428757715,-1.868923601866146,2.887189670428752,117.60184604529402,-106.54346653335392
0.125,-0.4373054615407338,4.706828164406242,6.151533209434213,-2.369341416938041,-1.8619598325324547,2.855314171161776,117.66105737384387,-106.0947267973788
0.1275,-0.44322037626889427,4.702182007688639,6.158631864023366,-2.3626262809384166,-1.85496255334216,2.8236229080103175,117.70894461139025,-105.6383863545469
0.13,-0.44911876970128967,4.697553380686944,6.165651522453775,-2.3561239959635976,-1.8479363546670118,2.792117165676084,117.74550775793311,-105.1744452048582
0.1325,-0.45500117159303505,4.692942350008015,6.172592650129965,-2.349832660509195,-1.8408857815045607,2.7607982256037547,117.77074681347251,-104.70290334831274
0.135,-0.46086810686964474,4.688348970953298,6.179455715656012,-2.343750312657829,-1.833815333232527,2.7296673659892345,117.78564261391689,-104.22464388977359
0.1375,-0.46672009544766285,4.683773287937935,6.186241190572902,-2.3378749076849425,-1.8267292195918878,2.6987256582529056,117.7965774040479,-103.74541314353769
0.14,-0.47255765187902465,4.679215336895148,6.1929495474405885,-2.332204200664773,-1.8196300166082613,2.667972846707977,117.80470230379136,-103.26624753128957
0.14250000000000002,-0.4783812850498764,4.674675147735211,6.199581257881901,-2.3267359043653326,-1.812519966757201,2.6374084374449622,117.81001731314736,-102.7871470530293
0.145,-0.4841914981149457,4.670152744820659,6.206136792286462,-2.3214677210177714,-1.8054012658741025,2.607031937806555,117.81252243211588,-102.30811170875683
0.1475,-0.48998878847238553,4.665648147082125,6.212616619813812,-2.3163973432612717,-1.7982760637639703,2.5768428563844554,117.8122176606969,-101.82914149847215
0.15,-0.49577364774095006,4.66116136813265,6.219021208396532,-2.311522455063691,-1.791146464817842,2.5468407030162012,117.80910299889044,-101.35023642217533
0.1525,-0.5015465617394421,4.656692416380434,6.225351024743345,-2.3068407326183102,-1.7840145286352496,2.5170249887820115,117.8031784466965,-100.87139647986629
0.155,-0.5073080104683733,4.652241295140037,6.23160653434223,-2.3023498452170443,-1.7768822706521132,2.487395226001636,117.79444400411505,-100.39262167154509
0.1575,-0.5130584680937774,4.647808002741993,6.237788201463509,-2.298047456100468,-1.7697516627734833,2.4579509282312113,117.78289967114613,-99.91391199721168
0.16,-0.5187984029331213,4.64339253264084,6.243896489162937,-2.2939312232850297,-1.7626246340105673,2.428691610260128,117.76854544778972,-99.4352674568661
0.1625,-0.5245282774432544,4.6389948735215585,6.249931859284781,-2.2899988003678122,-1.7555030711214972,2.399616788107902,117.75138133404582,-98.95668805050833
0.165,-0.5302485482103435,4.634615009404393,6.255894772464891,-2.2862478373092134,-1.748388819255309,2.3707259790210577,117.73140732991443,-98.47817377813837
0.1675,-0.5359596659417366,4.63025291974807,6.261785688133763,-2.2826759811939175,-1.7412836825986289,2.342018701470017,117.70862343539557,-97.99972463975624
0.17,-0.5416620754597025,4.6259085795513935,6.267605064519597,-2.27928087697053,-1.7341894250245748,2.3134944751459954,117.6830296504892,-97.52134063536191
0.17250000000000001,-0.5473562156969926,4.62158195945321,6.273353358651344,-2.276060168170248,-1.727107770743401,2.285152820957907,117.65462597519532,-97.04302176495537
0.17500000000000002,-0.5530425196941748,4.617273025830756,6.2790310263617455,-2.2730114976049456,-1.720040404954431,2.2569932610292796,117.623412409514,-96.56476802853668
0.1775,-0.5587214145986862,4.612981740896365,6.284638522290366,-2.270132508045044,-1.7129889744988387,2.229015318695172,117.5893889534452,-96.0865794261058
0.18,-0.5643933216655558,4.608708062792548,6.29017629988662,-2.267420842877545,-1.7059550885128605,2.201218518499105,117.55255560698888,-95.60845595766273
0.1825,-0.5700586562597482,4.604451945685437,6.295644811412789,-2.264874146744603,-1.698940319081025,2.1736023861899967,117.51291237014507,-95.13039762320747
0.185,-0.5757178278600794,4.600213339856597,6.301044507947028,-2.2624900661630063,-1.6919462018890183,2.146166448719107,117.47045924291379,-94.65240442274002
0.1875,-0.5813712400646585,4.5959921917932105,6.306375839386371,-2.2602662501249444,-1.684974236875803,2.1189102342369877,117.42519622529501,-94.17447635626039
0.19,-0.5870192905978069,4.5917884442766255,6.311639254449726,-2.2582003506804327,-1.6780258888846358,2.0918332720904447,117.37712331728875,-93.69661342376857
0.1925,-0.5926623713184129,4.587602036469285,6.316835200680857,-2.25629002350176,-1.6711025883126358,2.0649350928195034,117.32624051889499,-93.21881562526458
0.195,-0.5983008682296739,4.58343290400003,6.321964124451369,-2.254532928430336,-1.6642057317585741,2.038215228154384,117.27254783011375,-92.7410829607484
0.1975,-0.6039351614901842,4.579280979047787,6.327026470963676,-2.2529267300062936,-1.6573366826685645,2.011673211012484,117.21604525094503,-92.26341543022001
0.2,-0.6095656254263268,4.575146190423646,6.3320226842539675,-2.251469097981221,-1.6504967719793546,1.9853085754953683,117.15673278138881,-91.78581303367945
0.2025,-0.6151926285459245,4.571028463651332,6.336953207195163,-2.250157707814377,-1.643687298758926,1.9591208568857676,117.09461042144511,-91.3082757711267
0.20500000000000002,-0.6208165335531132,4.566927721046075,6.34181848149986,-2.2489902411527485,-1.636909530844123,1.9331095916445835,117.02967817111391,-90.83080364256178
0.20750000000000002,-0.6264376973643939,4.5628438817919,6.346618947723283,-2.2479643862953087,-1.6301647054750488,1.9072743174079014,116.96193603039524,-90.35339664798465
0.21,-0.632056471125827,4.558776862017323,6.351355045266208,-2.247077838641826,-1.6234540299259703,1.8816145729840115,116.89138399928908,-89.87605478739535
0.2125,-0.6376732002313287,4.554726574869484,6.356027212377897,-2.246328301126571,-1.6167786821324972,1.8561298983504364,116.81802207779543,-89.39877806079387
0.215,-0.6432882243420346,4.550692930586712,6.360635886159011,-2.245713484637266,-1.6101398113147973,1.8308198346509674,116.74185026591431,-88.9215664681802
0.2175,-0.648901877406691,4.546675836569539,6.365181502564529,-2.245231108419624,-1.6035385385966348,1.8056839241927076,116.66286856364566,-88.44442000955434
0.22,-0.654514487683041,4.542675197450172,6.369664496406647,-2.2448789004678025,-1.5969759576200209,1.7807217104431226,116.58107697098954,-87.96733868491627
0.2225,-0.6601263777601687,4.538690915160429,6.374085301357675,-2.24465459790112,-1.59045313515528,1.7559327380270982,116.49647548794596,-87.49032249426607
0.225,-0.6657378645817691,4.534722888998168,6.3784443499529315,-2.2445559473273504,-1.5839711117063422,1.7313165527240066,116.40999979898106,-87.01343988385318
0.2275,-0.6713492594985276,4.530771015983108,6.382742073573897,-2.24458072792955,-1.5775306694445834,1.7068726856895222,116.32357975331301,-86.53683202406779
0.23,-0.6769608683862259,4.526835191810028,6.386978902390736,-2.244726780956809,-1.5711320863882965,1.6826006367314847,116.23727383122163,-86.06050319280054
0.2325,-0.6825729917498584,4.5229153115252645,6.39115526532349,-2.244991968548296,-1.5647756033785702,1.6584999059398886,116.15108203270692,-85.58445339005142
0.23500000000000001,-0.6881859247742071,4.519011269600657,6.395271590044007,-2.2453741724011897,-1.5584614392743645,1.6345699946721213,116.06500435776891,-85.10868261582046
0.23750000000000002,-0.6937999573727625,4.515122959987727,6.39932830297911,-2.2458712937901253,-1.552189791570903,1.61081040554975,115.9790408064076,-84.63319087010763
0.24,-0.699415374236683,4.511250276170325,6.403325829313754,-2.2464812535786964,-1.545960837007327,1.5872206424553172,115.89319137862297,-84.15797815291293
0.2425,-0.7050324548837743,4.507393111215771,6.4072645929941725,-2.247201992223339,-1.5397747321636845,1.563800210529143,115.80745607441501,-83.68304446423639
0.245,-0.7106514737074682,4.50355135782452,6.411145016731019,-2.2480314697699075,-1.5336316140473383,1.540548616166137,115.72183489378375,-83.20838980407797
0.2475,-0.7162727000257846,4.499724908378371,6.414967522002498,-2.248967665843249,-1.527531600668874,1.517465367012617,115.63632783672921,-82.73401417243771
0.25,-0.7218963981302593,4.495913654987248,6.418732529057492,-2.25000857963007,-1.5214747916075988,1.4945499719631368,115.5509349032513,-82.25991756931556
0.2525,-0.7275228273348201,4.492117489534586,6.422440456918678,-2.2511522298553874,-1.5154612685667186,1.4718019411573218,115.4656560933501,-81.78609999471158
0.255,-0.7331522420245968,4.488336303721332,6.426091723385632,-2.25239665475284,-1.5094910959182866,1.449220785976712,115.3804914070256,-81.31256144862574
0.2575,-0.7387848917046498,4.484569989108611,6.429686745037935,-2.2537399120291317,-1.5035643212380199,1.4268060190416134,115.29544084427779,-80.83930193105802
0.26,-0.7444210210486021,4.480818437159049,6.433225937238264,-2.255180078822876,-1.4976809758300786,1.4045571542079582,115.21050440510668,-80.36632144200846
0.2625,-0.7500608699471623,4.4770815392768135,6.4367097141354765,-2.2567152516580915,-1.4918410752419105,1.3824737065641712,115.12568208951224,-79.89361998147704
0.265,-0.7557046735565245,4.473359186846371,6.440138488667689,-2.258343546392603,-1.4860446197692592,1.3605551924280457,115.04097389749447,-79.42119754946373
0.2675,-0.7613526623466332,4.469651271269992,6.443512672565345,-2.260063098161588,-1.4802915949514412,1.3388011293436266,114.95637982905342,-78.94905414596859
0.27,-0.7670050621493018,4.465957684004036,6.446832676354278,-2.2618720613164998,-1.4745819720569955,1.3172110360781017,114.87189988418903,-78.47718977099159
0.2725,-0.7726620942061713,4.4622783165940305,6.450098909358766,-2.2637686093596026,-1.4689157085598112,1.2957844326187005,114.78753406290134,-78.0056044245327
0.275,-0.7783239752165021,4.458613060708573,6.453311779704576,-2.2657509348743305,-1.4632927486058418,1.2745208401696009,114.70328236519033,-77.53429810659199
0.2775,-0.7839909173847855,4.454961808172075,6.456471694322004,-2.26781724945169,-1.4577130234705125,1.253419781148845,114.61914479105602,-77.0632708171694
0.28,-0.7896631284681667,4.451324450996379,6.459579058948905,-2.2699657836129115,-1.4521764520069327,1.2324807791852603,114.53512134049839,-76.59252255626497
0.28250000000000003,-0.7953408118236694,4.447700881411263,6.4626342781337165,-2.2721947867285492,-1.446682941085021,1.211703359115391,114.45121201351746,-76.12205332387865
0.28500000000000003,-0.8010241664552157,4.444090991893857,6.465637755238473,-2.2745025269342283,-1.4412323860216552,1.1910870469804353,114.36741681011323,-75.6518631200105
0.28750000000000003,-0.8067133870604288,4.440494675196999,6.468589892441815,-2.276887291043221,-1.4358246710019587,1.1706313700231927,114.28373573028566,-75.18195194466048
0.29,-0.8124086640772157,4.436911824376547,6.47149109074199,-2.2793473844560395,-1.4304596694918352,1.1503358566850161,114.20016877403478,-74.71231979782857
0.2925,-0.8181101837301189,4.433342332817669,6.4743417499598435,-2.2818811310672205,-1.4251372446418644,1.1302000366027742,114.11671594136058,-74.24296667951484
0.295,-0.8238181280764325,4.429786094260138,6.477142268741803,-2.284486873169469,-1.4198572496826705,1.11022344060582,114.03337723226309,-73.77389258971924
0.2975,-0.8295326750520747,4.426243002822646,6.479893044562857,-2.28716297135533,-1.414619528311878,1.0904056007129679,113.95015264674228,-73.30509752844178
0.3,-0.8352539985172128,4.4227129530261555,6.4825944737295265,-2.2899078044165453,-1.409423915072767,1.070746050129478,113.86704218479815,-72.83658149568244
0.3025,-0.8409822683016325,4.419195839816331,6.485246951382824,-2.2927197692412506,-1.4042702357247405,1.0512443232440487,113.78404584643073,-72.36834449144128
0.305,-0.8467176502498485,4.415691558585037,6.4878508715012115,-2.2955972807091602,-1.3991583076057184,1.031899955625815,113.70116363164,-71.90038651571824
0.3075,-0.8524603062659507,4.412200005190946,6.490406626903544,-2.2985387715848833,-1.3940879399865693,1.0127124840213573,113.61839554042592,-71.43270756851332
