t,x,y,ang,vx,vy,omega,thrust,torque
0.0,2.6490190505268583,3.671747143965036,0.8236947297533148,-1.694441054574236,1.596451107438747,4.066560242516422,70.15931540126147,-175.04471059687782
0.0025,2.6447694655053704,3.675720003642969,0.833797786794346,-1.705244671149589,1.581817914191622,4.015906820613941,60.73505707283731,-174.9211542442172
0.005,2.640494926329276,3.6796541689934257,0.8437744064830283,-1.7144016363290706,1.5654989863272863,3.9654102942583065,67.22411553375157,-174.76721856776217
0.0075,2.6361958646330264,3.683548764132942,0.853624989316664,-1.7248637779321812,1.5501596156960167,3.9150772674039005,61.84175602128318,-174.6127125881052
0.01,2.6318717990074774,3.6874037788915865,0.86334994369002,-1.7344031130648283,1.5338366260476899,3.8649074569813915,65.1706252356044,-174.43537963441284
0.0125,2.6275229856796254,3.691218542947499,0.8729496837058517,-1.7446622577705364,1.5179580336618035,3.814905710280452,62.16149578120769,-174.2518687665977
0.015,2.6231491373765317,3.6949928847318194,0.8824246307712184,-1.7544300295924105,1.5014999442855275,3.765073025083326,63.66740903891305,-174.05014197509374
0.0175,2.6187504040939906,3.6987262634223046,0.891775212254038,-1.7645701525070299,1.485187176433454,3.715413171121903,61.96870203936533,-173.83901814156977
0.02,2.6143266337929885,3.702418409809429,0.9010018623928499,-1.7744589043529375,1.468514798685763,3.6659278760252088,62.47592191566203,-173.61236293377476
0.0225,2.6098779219482853,3.706068860059858,0.9101050215078109,-1.784523101692149,1.4518302335606785,3.616620276862223,61.45113559177003,-173.3746022603018
0.025,2.6054042099267454,3.709677289806258,0.9190851364761803,-1.794458474128884,1.4348988729802277,3.5674924826804246,61.43586916046986,-173.12281176395172
0.0275,2.6009055745068457,3.7132432784485894,0.9279426602840003,-1.804461450579334,1.4178774995581191,3.5185472711761876,60.727308846101366,-172.85910020146676
0.03,2.596382023173878,3.716766472802193,0.936678052244967,-1.814390720280621,1.4006638206289206,3.4697869269847135,60.44635348242791,-172.58218023927114
0.0325,2.591833637111084,3.720246475325745,0.9452917777481538,-1.824328837426284,1.3833242784123538,3.421214025649338,59.865609260480326,-172.29301469574816
0.035,2.5872604736686844,3.7236829191886405,0.9537843083358252,-1.8342121876746689,1.365817233657816,3.3728309142766837,59.44743730155638,-171.9910962186143
0.0375,2.5826626323996624,3.7270754187197843,0.9621561215567992,-1.844070701116205,1.3481691046917397,3.324640050955707,58.90136010622986,-171.67685745206956
0.04,2.5780402118217594,3.7304236015432655,0.9704077009726274,-1.8538752286460756,1.3303642011510055,3.2766437878291574,58.404937846009766,-171.35013646975028
0.0425,2.573393337893609,3.7337270881140308,0.9785395360644311,-1.8636329946741985,1.312412421718265,3.2288445083967683,57.84995117771809,-171.01113655915992
0.045,2.5687221463038292,3.7369855045111664,0.9865521222059331,-1.8733289744411958,1.2943084003465308,3.181244543262514,57.29945396121377,-170.6598367643839
0.0475,2.564026793963996,3.7401984745929617,0.9944459605960173,-1.8829612236656723,1.276055706489559,3.1338462219515706,56.71577455046805,-170.2963471582391
0.05,2.5593074524042048,3.7433656247159752,1.0022215582182699,-1.892519986558769,1.2576527803915734,3.0866518427139975,56.119321352496925,-169.92069876436744
0.0525,2.554564312175981,3.7464865809540693,1.0098794277856744,-1.9019998046201816,1.2391009489992446,3.03966369082301,55.497666042716425,-169.53296533775605
0.055,2.54979758070634,3.749560970705315,1.0174200876958945,-1.9113926343946381,1.2203999480037793,2.992884028759304,54.85655942777234,-169.13319416348875
0.0575,2.545007483978385,3.7525884217839427,1.0248440619819947,-1.920691675259688,1.2015503724663188,2.9463151023695358,54.19189015024964,-168.7214445638223
0.06,2.540194266032247,3.7555685629235076,1.0321518802674379,-1.9298892817764006,1.182552363527865,2.8999591381342036,53.504777416798376,-168.29776691302592
0.0625,2.5353581896887585,3.7585010235048677,1.0393440777203105,-1.938978075012747,1.1634062970943981,2.85381834527905,52.79362309806224,-167.86221382584893
0.065,2.530499536608897,3.761385433700424,1.046421195009595,-1.947950361659757,1.1441124304824095,2.807894915302427,52.0582071776362,-167.41483432602143
0.0675,2.5256186077111367,3.7642214243995578,1.0533837782619422,-1.9567984290567744,1.1246710795483075,2.762191022847885,51.29762669112376,-166.95567682483005
0.07,2.5207157234042237,3.767008627246144,1.0602323790197643,-1.9655143976005927,1.1050825318094109,2.716708825888059,50.51131113252292,-166.48478764755905
0.0725,2.5157912239152593,3.769746674619676,1.0669675542002117,-1.97409029219832,1.0853470879231015,2.6714504662477063,49.69853610357541,-166.00221176323922
0.075,2.5108454695706603,3.772435199643729,1.0735898660552454,-1.9825180084611072,1.0654650422174563,2.626418069957232,48.85865287632844,-165.50799245548401
0.0775,2.5058788410992223,3.7750738361811207,1.0800998821326873,-1.990789328852462,1.0454366914537072,2.5816137476811796,47.99098505822733,-165.00217149576653
0.08,2.5008917399229165,3.7776622188349878,1.086498175238289,-1.9988959163419935,1.0252623308236646,2.5370395951056994,47.09487636553794,-164.48478909028452
0.0825,2.4958845884504135,3.7801999829468875,1.0927853233987859,-2.006829318573938,1.0049422555627285,2.492697693337283,46.16967168421103,-163.95588393247573
0.085,2.490857830365323,3.7826867645959075,1.0989619098259291,-2.014580967926089,0.984476760146491,2.4485901092883813,45.214726958182496,-163.4154932140286
0.08750000000000001,2.4858119309114914,3.785122200597023,1.1050285228814791,-2.022142183801712,0.9638661384899885,2.4047188960595087,44.22940708791293,-162.86365265817767
0.09,2.4807473771730915,3.787505928499433,1.110985756043142,-2.0295041745086855,0.9431106837330276,2.3610860933127022,43.21308881234435,-162.30039654863776
0.0925,2.4756646783491423,3.789837586584556,1.1168342078714315,-2.0366580398301743,0.922210688182796,2.317693727637369,42.165161706835036,-161.7257577652632
0.095,2.470564366021266,3.7921168138638017,1.1225744819774333,-2.043594773868937,0.9011664431901366,2.274543812906983,41.08502999548593,-161.13976782219893
0.0975,2.4654469944137634,3.794343250076055,1.1282071869914487,-2.050305268347312,0.8799782390448612,2.2316383506260906,39.97211414443892,-160.54245691032844
0.1,2.460313140644926,3.796516535684883,1.1337329365324937,-2.0567803163144145,0.8586463648588136,2.1889793302666463,38.82585261641454,-159.93385394350085
0.10250000000000001,2.455163404968532,3.7986363118754496,1.139152349178623,-2.063010616297072,0.8371711084482334,2.1465687295928455,37.64570364560867,-159.3139866088762
0.105,2.449998411004398,3.8007022205511296,1.1444660484380518,-2.0689867768993664,0.8155527562117404,2.104408514973531,36.43114707755049,-158.68288142140662
0.1075,2.444818805956858,3.802713904329815,1.1496746627210408,-2.074699321865594,0.7937915930055555,2.0625006416812486,35.18168625399801,-158.04056378257178
0.11,2.439625260819987,3.8046710065399036,1.1547788253125122,-2.080138695616873,0.7718879020158813,2.020847054177007,33.89684994288859,-157.38705804343977
0.1125,2.4344184705683833,3.8065731712159687,1.1597791743453576,-2.0852952692715405,0.749841964628898,1.9794496863797857,32.57619430733253,-156.7223875721232
0.115,2.4291991543322817,3.8084200430940975,1.1646763527743997,-2.0901593471579947,0.7276540602987719,1.9383104619198068,31.21930490763338,-156.04657482568481
0.11750000000000001,2.4239680555557594,3.810211267606898,1.1694710083509656,-2.0947211738271534,0.7053244664140915,1.8974312943745972,29.82579873029302,-155.35964142653168
0.12,2.418725942136781,3.8119464908781726,1.1741637935980271,-2.098970941570194,0.6828534581632131,1.8568140874868428,28.92663842804091,-154.66539277815963
0.1225,2.413473453367915,3.813625423596566,1.1787553646950935,-2.103021355881653,0.660292307380553,1.8164598631164004,28.886861131406018,-153.97220685104242
0.125,2.408210840613615,3.8152479458968727,1.1832463779584044,-2.1070700581645236,0.6377252343185721,1.7763677096064903,28.667200867627596,-153.28224109243394
0.1275,2.40293816076219,3.8168140226948597,1.1876374868061343,-2.1110749601754955,0.615136049729374,1.7365362203705412,28.472847924448796,-152.59506690769507
0.13,2.3976555166347926,3.8183236030128636,1.1919293412679792,-2.1150414088226537,0.5925281880273393,1.696964091169046,28.26043687453154,-151.91073352598417
0.1325,2.392363010224758,3.819776639349691,1.1961225881029822,-2.118964718507527,0.5699010041119987,1.6576500097228928,28.038411618655914,-151.22918929113368
0.135,2.3870607527799663,3.8211730836038127,1.2002178708085374,-2.122842171349384,0.5472546610890122,1.6185926789854521,27.804935054058163,-150.5504025147926
0.1375,2.3817488628649954,3.8225128878905936,1.2042158296526675,-2.126670631833525,0.5245891695621587,1.5797908125018447,27.560122836481618,-149.87433745520383
0.14,2.3764274668378276,3.82379600438598,1.2081171017016383,-2.130447000744906,0.5019045672275287,1.541243135316304,27.303751005513483,-149.2009588910924
0.14250000000000002,2.371096698857795,3.825022385354199,1.2119223208485197,-2.134168136207396,0.47920088690949225,1.5029483838230648,27.035664939478163,-148.53023132817194
0.145,2.3657567009718923,3.8261919831422366,1.2156321178416027,-2.137830869956411,0.4564781618760473,1.46490530580051,26.755711215667212,-147.8621191646778
0.1475,2.360407623180255,3.827304750179811,1.2192471203128563,-2.1414320077326505,0.43373642492705256,1.4271126604070807,26.46374934720843,-147.1965866967512
0.15,2.3550496234972123,3.828360638978291,1.2227679528063693,-2.1449683324278066,0.4109757084665978,1.3895692181759556,26.159650872937284,-146.5335981513282
0.1525,2.349682868004732,3.8293596021296197,1.2261952368067723,-2.1484366070276897,0.388196044429109,1.352273761002163,25.843300334467383,-145.87311771675968
0.155,2.344307530898206,3.8303015923050725,1.2295295907676165,-2.1518335777938704,0.36539746422672054,1.315225082122669,25.514595981193658,-145.21510957559315
0.1575,2.338923794524065,3.8311865622538877,1.2327716301396947,-2.155155977619691,0.3425799986948546,1.2784219860889603,25.173450500320634,-144.5595379388595
0.16,2.33353184940878,3.832014464801759,1.2359219673992838,-2.158400529566057,0.31974367803931003,1.2418632887317946,24.81979172829942,-143.9063670819071
0.1625,2.328131894278803,3.832785252849197,1.238981212076288,-2.1615639505721256,0.29688853178473473,1.2055478171177811,24.45356334480679,-143.2555613817231
0.165,2.32272413607102,3.833498879369767,1.2419499707822639,-2.164642955336226,0.27401458872481566,1.1694744094974694,24.0747255439925,-142.6070853556844
0.1675,2.317308789933294,3.8341552974082,1.2448288472383044,-2.1676342603610514,0.2511218768744418,1.1336419152446393,23.68325567887029,-141.9609037016683
0.17,2.3118860792147036,3.8347544600783907,1.2476184423027599,-2.1705345881561326,0.22821042342412426,1.0980491947864994,23.279148874399333,-141.3169813394419
0.17250000000000001,2.306456235445082,3.8352963205612824,1.2503193539987718,-2.173340671589512,0.20528025469695974,1.0626951195245238,22.862418604627745,-140.67528345324172
0.17500000000000002,2.3010194983035057,3.8357808321026474,1.2529321775415982,-2.1760492583793867,0.18233139610841778,1.027578571745675,22.43309722944543,-140.03577553543985
0.1775,2.2955761155753938,3.8362079480107707,1.255457505365704,-2.178657115715395,0.159363872129237,0.9926984445237891,21.991236486316197,-139.3984234311877
0.18,2.2901263430979006,3.8365776216540466,1.2578959271515917,-2.181161034998076,0.13637770625170414,0.9580536416109213,20.24094211843014,-138.93920327831654
0.1825,2.284670829956239,3.836889682151693,1.260247979123198,-2.1832496515973863,0.11327361714015043,0.9236025111601405,19.94676982452391,-138.30529934688076
0.185,2.279210181557003,3.8371439765129156,1.262514195194601,-2.185269220579356,0.09016489209131592,0.8893848226845125,19.66376172960219,-137.67373205134334
0.1875,2.2737445674090093,3.837340495108309,1.2646951575571765,-2.1872222312770844,0.06705309589889,0.8553994458122028,19.39191783366498,-137.04450139170422
0.19,2.2682741507819224,3.8374792321722575,1.2667914455799536,-2.189111185586791,0.04393975492629873,0.8216452530371436,19.131238136712277,-136.41760736796346
0.1925,2.262799088675905,3.8375601857086648,1.2688036358167711,-2.1909385971258883,0.020826358551874164,0.788121119711768,18.88172263874408,-135.79304998012103
0.195,2.2573195317933332,3.837583357400291,1.270732302013415,-2.1927069904219576,-0.0022856393938630627,0.7548259240397633,18.643371339760392,-135.1708292281769
0.1975,2.2518356245125006,3.8375487525216694,1.2725780151147361,-2.194418900131365,-0.02539481919933544,0.7217585470688426,18.416031336334505,-134.55072533835718
0.2,2.246347504908906,3.837456379841578,1.2743413433350956,-2.1960768337605683,-0.04849980504399977,0.6889179233362414,18.198105637112835,-133.9304428956779
0.2025,2.2408553052555633,3.837306251383879,1.2760228528901543,-2.1976829257625106,-0.07159936843099116,0.6563035191197947,17.9891695103509,-133.3093714174286
0.20500000000000002,2.235359152606429,3.837098382170464,1.2776231088389112,-2.199239216878333,-0.0946923392960533,0.6239149427524194,17.789222956048707,-132.6875109036091
0.20750000000000002,2.2298591689044893,3.8368327901157744,1.2791426752624402,-2.2007477550803696,-0.1177775735669714,0.5917518035600033,17.598265974206246,-132.0648613542195
0.21,2.224355470964395,3.8365094959632238,1.2805821152663677,-2.202210595004835,-0.14085395204178308,0.5598137118588877,17.416298564823528,-131.4414227692598
0.2125,2.2188481704564897,3.836128523224415,1.281941990983347,-2.2036297974042256,-0.16392037927496703,0.5281002789533565,17.243320727900546,-130.81719514872992
0.215,2.2133373738921818,3.835689898121131,1.283222863575524,-2.2050074286185586,-0.18697578247196428,0.49661111713313144,17.0793324634373,-130.19217849262992
0.2175,2.2078231826106176,3.8351936495300825,1.2844252932369984,-2.2063455600645994,-0.2100191103923676,0.4653458396708736,16.924333771433794,-129.5663728009598
0.22,2.2023056927666085,3.8346398089303793,1.2855498391962774,-2.2076462677422315,-0.233049332262096,0.43430406081969186,16.778324651890028,-128.93977807371957
0.2225,2.196784995319772,3.8340284103537177,1.2865970597187242,-2.208911631757158,-0.2560654366948544,0.40348539581065684,16.641305104805994,-128.3123943109092
0.225,2.191261176024847,3.833359490337246,1.2875675121089991,-2.210143735859134,-0.2790664306231609,0.37288946085032165,16.513275130181697,-127.68422151252871
0.2275,2.185734315423145,3.832633087879094,1.288461752713496,-2.2113446669949464,-0.3020513382392103,0.3425158731182488,16.39423472801714,-127.05525967857808
0.23,2.180204488835099,3.8318492443965355,1.2892803369227714,-2.2125165148753867,-0.3250191999458252,0.3123642507645435,16.28418389831232,-126.42550880905733
0.2325,2.1746717663538817,3.8310080036867613,1.2900238191739675,-2.213661371555469,-0.34796907131773347,0.2824342129073928,16.183122641067243,-125.79496890396649
0.23500000000000001,2.169136212840056,3.8301094118902377,1.2906927529532293,-2.2147813310271727,-0.3709000220733982,0.2527253796306116,16.091050956281897,-125.16363996330549
0.23750000000000002,2.1635978879172284,3.8291535174566182,1.2912876907981161,-2.2158784888240057,-0.39381113505761106,0.22323737198119437,16.00796884395629,-124.53152198707436
0.24,2.1580568459686753,3.828140371113188,1.2918091843000064,-2.2169549416367027,-0.41670150523505106,0.1939698119668733,15.93387630409042,-123.89861497527309
0.2425,2.152513136134921,3.8270700258358104,1.2922577841064957,-2.2180127869393895,-0.43957023869499706,0.1649223225536826,15.868773336684292,-123.2649189279017
0.245,2.1469668023122352,3.8259425368223456,1.2926340399237906,-2.2190541226255704,-0.46241645166737366,0.13609452766352897,15.812659941737898,-122.63043384496021
0.2475,2.141417883152029,3.824757961468517,1.2929385005190943,-2.2200810466533043,-0.4852392695502987,0.10748605217176821,15.765536119251243,-121.99515972644858
0.25,2.1358664120611275,3.8235163593461934,1.2931717137229881,-2.221095656698962,-0.5080378259492918,0.07909652190478798,15.727401869224327,-121.35909657236685
0.2525,2.1303124172028984,3.8222177921840568,1.293334226431805,-2.22210004981897,-0.5308112617282948,0.0509255636375968,15.698257191657149,-120.72224438271496
0.255,2.124755921499216,3.8208623238506303,1.2934265846099995,-2.2230963221189675,-0.5535587240726461,0.02297280509141897,15.678102086549703,-120.08460315749292
0.2575,2.1191969426332444,3.819450020339633,1.2934493332925088,-2.224086568429821,-0.576279365564143,-0.004762125068704288,15.666936553901998,-119.44617289670079
0.26,2.1136354930530232,3.81798094975763,1.2934030165871104,-2.2250728819899583,-0.5989723432683205,-0.03227959723630762,15.664760593714032,-118.80695360033853
0.2625,2.1080715799758374,3.81645518231395,1.293288177676772,-2.2260573541334976,-0.6216368178340643,-0.059579980865888296,15.671574205985806,-118.16694526840618
0.265,2.1025052053933644,3.814872790312841,1.2931053588219965,-2.227042073983677,-0.6442719526056752,-0.0866636444752869,15.687377390717312,-117.52614790090364
0.2675,2.0969363660775775,3.8132338481478243,1.2928551013631604,-2.2280291281510913,-0.6668769127474891,-0.11353095564806195,15.71217014790856,-116.884561497831
0.27,2.0913650535874004,3.811538432298226,1.292537945722847,-2.2290206004362734,-0.6894508643811581,-0.14018228103585856,15.745952477559543,-116.24218605918824
0.2725,2.0857912542761,3.8097866213278486,1.2921544314081725,-2.2300185715361667,-0.7119929737356872,-0.16661798636077108,15.788724379670263,-115.59902158497532
0.275,2.080214949299409,3.8079784958857488,1.2917050970131079,-2.2310251187540584,-0.7345024063103197,-0.19283843641769968,15.840485854240724,-114.95506807519233
0.2775,2.0746361146243686,3.8061141387090958,1.2911904802207927,-2.2320423157125533,-0.7569783260503591,-0.21884399507670108,15.900327852010872,-114.31053834941152
0.28,2.0690547213118022,3.804193634549653,1.2906111177445074,-2.2330720137870483,-0.7794199572779543,-0.24463507433526013,15.967040520708773,-113.66571564887684
0.28250000000000003,2.063470736162052,3.802217069997276,1.2899675451872092,-2.2341157700332746,-0.8018266051544551,-0.27021215042682123,16.040617884115523,-113.02060137269429
0.28500000000000003,2.057884122089065,3.8001845333821667,1.2892602969623785,-2.2351751364893087,-0.8241975721951024,-0.2955756986999227,16.121059942231135,-112.37519552086391
0.28750000000000003,2.052294838131421,3.798096114782731,1.2884899062966317,-2.2362516613899603,-0.8465321572760373,-0.3207261932979791,16.20836669505559,-111.72949809338564
0.29,2.046702839462116,3.7959519060353917,1.2876569052327294,-2.2373468889451793,-0.868829655063627,-0.3456641071623365,16.302538142588908,-111.08350909025957
0.2925,2.0411080773989028,3.7937520007458145,1.2867618246325785,-2.2384623591192754,-0.891089355453947,-0.37038991203532007,16.40357428483107,-110.43722851148567
0.295,2.0355104994151785,3.7914964943015232,1.2858051941802255,-2.239599607410724,-0.9133105430224647,-0.39490407846327386,16.511475121782098,-109.79065635706392
0.2975,2.0299100491514253,3.7891854838858774,1.2847875423848434,-2.2407601646323347,-0.9354924964839655,-0.4192070757995929,16.626240653441975,-109.14379262699433
0.3,2.024306666427198,3.7868190684933882,1.283709396583709,-2.241945556691575,-0.9576344881627595,-0.4432993722077475,16.747870879810705,-108.49663732127689
0.3025,2.0187002872536643,3.784397348946344,1.2825712829451752,-2.2431573043708517,-0.9797357834732094,-0.46718143466430023,16.876365800888294,-107.84919043991162
0.305,2.0130908438466895,3.781920427912725,1.2813737264716338,-2.2443969231075678,-1.0017956404106123,-0.4908537289619148,17.01172541667473,-107.20145198289852
0.3075,2.007478264640477,3.779388409925374,1.2801172510024719,-2.245665922773772,-1.0238133090524713,-0.5143167197123577,17.153949727170026,-106.55342195023756
