t,x,y,ang,vx,vy,omega,thrust,torque
0.0,3.417685522745113,8.989414285059377,1.1255029607802218,2.4007116119131378,-0.20650339889578873,3.801319804945771,52.15275232405338,-166.66122387381617
0.0025,3.423668827851553,8.988874707242225,1.134946173912454,2.385926802351964,-0.2251735260916972,3.753271029179085,41.32440264873275,-166.57910450378006
0.005,3.429618199792397,8.988286926069367,1.1442694411070549,2.3735666158888664,-0.24506185271208125,3.705362995296003,44.767312575026025,-166.46296215034903
0.0075,3.4355356603528575,8.98764978803649,1.1534731235785491,2.360397545577851,-0.26466015273071775,3.6576031879825592,43.86540516275532,-166.34544218723212
0.01,3.4414204245793063,8.98696345438929,1.1625575918204756,2.3474098805505323,-0.2844178581854542,3.6099915489552417,44.195821322516956,-166.21667345841706
0.0125,3.4472725957007166,8.98622768435378,1.1715232190258904,2.3343232565390113,-0.3042092296244533,3.5625302951485707,44.191247153476304,-166.0795754476111
0.015,3.4530920239433045,8.985442352786274,1.1803703830817103,2.3212158018731803,-0.32406692421477895,3.515220965003982,44.26179490749058,-165.93345794888177
0.0175,3.4588786371786355,8.984607303960967,1.189099465915008,2.308071463010332,-0.3439829005616367,3.4680652521388913,44.30697824702975,-165.77857846391078
0.02,3.4646323520655087,8.983722390087307,1.197710853607314,2.2948973328550695,-0.36395881569597194,3.4210647865288784,44.34858247013133,-165.61496088551957
0.0225,3.470353096684044,8.982787461911427,1.2062049363030432,2.2816954535016944,-0.38399419125399425,3.3742211885104028,44.38134368358271,-165.44267944241372
0.025,3.4760408057314187,8.981802370840965,1.2145821081709207,2.2684690768811513,-0.40408897474571753,3.327536057204001,44.40541943398617,-165.2617956651822
0.0275,3.4816954219744485,8.98076696851715,1.2228427673546693,2.255221406684434,-0.4242430320709455,3.2810109734946913,44.41992431895936,-165.0723710709605
0.03,3.4873168964335783,8.979681106904641,1.2309873159274816,2.2419558421127532,-0.44445623851209304,3.2346475000813064,44.42409354726665,-164.87446472301565
0.0325,3.4929051888374207,8.978544638286724,1.2390161598473197,2.2286759504741176,-0.4647284638639308,3.1884471820881592,44.417091067733246,-164.66813352225842
0.035,3.4984602680648664,8.97735741527662,1.2469297089136586,2.2153854846575443,-0.4850595743527401,3.142411547607971,44.39803355266354,-164.45343204743693
0.0375,3.5039821126238846,8.97611929082697,1.2547283767256292,2.2020883950085373,-0.5054494321818201,3.096542108280254,44.36598366994146,-164.23041245254774
0.04,3.509470711162019,8.974830118240112,1.2624125806416375,2.188788842811305,-0.5258978953532308,3.050840359891873,36.05058830893184,-163.90112972714155
0.0425,3.5149285262271976,8.97348897339777,1.2699827699842912,2.17746215870123,-0.5470244249815482,3.005330368468454,35.14538136455061,-163.65692353150789
0.045,3.5203582873068076,8.972094881140524,1.277439399017503,2.16634582439634,-0.5682553988043214,2.959992039712075,34.25207775035336,-163.40428200511346
0.0475,3.5257605185800007,8.97064758663796,1.2847828987849137,2.1554384727809928,-0.5895858031853423,2.9148268825624473,33.37067746634009,-163.1432051479583
0.05,3.5311357406884185,8.969146847437116,1.2920137040977286,2.144738641428257,-0.6110107497820123,2.8698364021337524,32.5011805125108,-162.87369296004235
0.0525,3.536484470502976,8.967592433150212,1.299132253525167,2.1342447766366117,-0.6325254747788842,2.8250220997243436,31.64358688886551,-162.59574544136572
0.055,3.541807220900598,8.965984125144374,1.3061389893849342,2.1239552373570225,-0.6541253380332213,2.7803854728264183,30.797896595404197,-162.30936259192825
0.0575,3.54710450055064,8.964321716233608,1.3130343577337187,2.1138682990110396,-0.675805822137128,2.735928015135669,29.964109632126853,-162.01454441173
0.06,3.5523768137107155,8.962605010373231,1.3198188083577123,2.103982157200684,-0.6975625314006747,2.6916512165609072,29.142225999033503,-161.71129090077102
0.0625,3.5576246600316663,8.960833822356927,1.326492794763155,2.0942949313109844,-0.7193911907603084,2.6475565632336644,28.332245696124136,-161.39960205905126
0.065,3.5628485343714056,8.959007977516615,1.3330567741669048,2.084804668006131,-0.7412876446167175,2.6036455375177683,27.534168723398754,-161.07947788657071
0.0675,3.5680489266173683,8.957127311425323,1.3395112074870288,2.075509344620297,-0.7632478556061849,2.5599196180188954,26.74799508085735,-160.75091838332943
0.07,3.5732263215173092,8.955191669603193,1.345856559333421,2.066406872444274,-0.7852679033093433,2.516380279594098,25.97372476849993,-160.4139235493274
0.0725,3.578381198518189,8.953200907226812,1.352093297998442,2.057495099909136,-0.8073439829011175,2.473028993361309,25.211357786326502,-160.0684933845646
0.075,3.5835140316128915,8.951154888841957,1.358221895447583,2.048771815668232,-0.8294724037455179,2.42986722670882,24.460894134337057,-159.71462788904105
0.0775,3.588625289194522,8.94905348807995,1.3642428273101543,2.0402347515788675,-0.851649587938825,2.3868964433047384,23.722333812531588,-159.3523270627567
0.08,3.593715433918032,8.946896587377694,1.3701565728699954,2.031881585585104,-0.8738720688045881,2.3441181031064175,22.995676820910106,-158.98159090571158
0.0825,3.598784922568935,8.944684077701531,1.375963615056211,2.0237099445031603,-0.8961364893437392,2.3015336623698652,22.280923159472604,-158.60241941790576
0.085,3.603834205938858,8.94241585827504,1.3816644404339284,2.0157174067109604,-0.9184396006430093,2.2591445736591274,21.57807282821909,-158.21481259933913
0.08750000000000001,3.608863728707708,8.94009183631085,1.3872595391950808,2.0079015047434092,-0.9407782602447199,2.216952285855648,20.88712582714956,-157.81877045001175
0.09,3.613873929332203,8.937711926746575,1.3927494051492104,2.000259727795039,-0.9631494304809088,2.174958244167606,20.208082156264012,-157.41429296992362
0.0925,3.6188652399405496,8.93527605198496,1.3981345357142987,1.992789524131695,-0.9855501767746412,2.133163890139226,19.540941815562444,-157.00138015907464
0.095,3.6238380862330364,8.932784141638313,1.403415431907617,1.9854883034129716,-1.007977665911246,2.09157066166007,18.885704805044867,-156.58003201746502
0.0975,3.628792887388325,8.930236132277283,1.4085925983366023,1.9783534389271447,-1.030429164282117,2.050179992974301,18.24237112471127,-156.15024854509457
0.1,3.6337300559752204,8.92763196718407,1.4136665431897544,1.971382269740372,-1.0529020361036088,2.0089933146899246,17.61094077456166,-155.71202974196336
0.10250000000000001,3.6386499978697087,8.924971596110117,1.4186377782275579,1.9645721027619547,-1.0753937416134618,1.9680120537880095,16.991413754596028,-155.26537560807142
0.105,3.6435531121770564,8.922254975038328,1.4235068187734259,1.9579202147274832,-1.0979018352470893,1.9272376336318808,16.38379006481438,-154.8102861434187
0.1075,3.648439791158765,8.919482065949873,1.428274183704667,1.951423854101702,-1.1204239637959645,1.886671473976293,15.788069705216717,-154.3467613480052
0.11,3.6533104201641864,8.91665283659562,1.4329403954434758,1.9450802429029446,-1.1429578645502505,1.8463149909765784,15.20425267580304,-153.87480122183098
0.1125,3.6581653775666028,8.913767260272223,1.4375059799479453,1.9388865784510059,-1.1655013634277285,1.8061695971977716,14.632338976573342,-153.39440576489594
0.115,3.6630050347035814,8.910825315602905,1.4419714667031025,1.9328400350403212,-1.1880523730909849,1.7662367016237128,14.07232860752763,-152.90557497720016
0.11750000000000001,3.6678297558214226,8.907826986322954,1.4463373887119673,1.926937765540335,-1.210608891054739,1.7265177096661268,13.524221568665903,-152.40830885874365
0.12,3.6726398980235193,8.90477226106998,1.4506042824866332,1.9211769029249426,-1.2331689977851026,1.6870140231736792,12.98801785998816,-151.90260740952633
0.1225,3.677435811222453,8.901661133178905,1.4547726880393708,1.9155545617328875,-1.2557308547924857,1.647727040441009,12.463717481494399,-151.38847062954827
0.125,3.6822178380956583,8.898493600481752,1.4588431488737539,1.910067839461004,-1.278292702719784,1.6086581562177396,11.951320433184618,-150.86589851880942
0.1275,3.6869863140444843,8.895269665112197,1.462816211975809,1.9047138178921805,-1.3008528594274034,1.569808761717466,11.450826715058827,-150.33489107730983
0.13,3.691741567156503,8.89198933331493,1.4666924278051856,1.8994895643599239,-1.3234097180766093,1.53118024462672,10.962236327117017,-149.7954483050495
0.1325,3.696483918170896,8.888652615259792,1.47047235028635,1.8943921329513924,-1.3459617452126105,1.492773989113911,10.485549269359188,-149.24757020202836
0.135,3.701213680446777,8.885259524860713,1.474156536799801,1.889418565650756,-1.3685074788487246,1.4545913758382463,10.020765541785345,-148.6912567682465
0.1375,3.7059311599342992,8.88181007959943,1.4777455481733088,1.8845658934247358,-1.3910455265529005,1.4166337819586277,9.567885144395484,-148.12650800370386
0.14,3.710636655148408,8.878304300353996,1.481239948673174,1.8798311372521554,-1.4135745635378139,1.378902581142525,9.126825593371526,-147.55386678794028
0.14250000000000002,3.71533045717076,8.874742211229764,1.4846403058390438,1.8752113296279351,-1.4360933325636163,1.3413990184538094,8.69660718295277,-146.97978120040878
0.145,3.720012849958928,8.871123839369444,1.4879471884608277,1.8707037388499628,-1.4586006606772062,1.304122849668519,8.2769454281325,-146.40612362157293
0.1475,3.724684110720513,8.867449214766511,1.4911611641789961,1.8663056967256135,-1.4810954400227088,1.2670733996420158,7.867840328910712,-145.83289405143276
0.15,3.729344509984313,8.863718370112755,1.494282798948299,1.8620145284906267,-1.5035766196498093,1.2302499949413161,7.469291885287408,-145.2600924899883
0.1525,3.7339943115848278,8.859931340658136,1.497312657042038,1.857827553553132,-1.5260432038190999,1.193651963840753,7.081300097262589,-144.68771893723945
0.155,3.738633772648573,8.856088164074864,1.5002513010563314,1.8537420861951095,-1.5484942503174073,1.1572786363176462,6.703864964836256,-144.11577339318632
0.1575,3.743263143582098,8.852188880325677,1.503099291914364,1.8497554362328923,-1.5709288687836747,1.1211293440479855,6.336986488008407,-143.54425585782886
0.16,3.747882668061601,8.848233531536295,1.5058571888706298,1.845864909638294,-1.5933462190459244,1.0852034204021241,5.9806646667790435,-142.97316633116702
0.1625,3.7524925830240545,8.844222161872004,1.5085255495151624,1.8420678091219145,-1.6157455094697892,1.0495002004404834,5.6348995011481655,-142.4025048132009
0.165,3.75709311865974,8.840154817418375,1.5111049297777541,1.8383614346801482,-1.6381259953190583,1.014019020909267,5.299690991115773,-141.83227130393047
0.1675,3.7616844984061086,8.836031546066042,1.513595883932166,1.8347430841073922,-1.6604869771286512,0.978759220236188,4.975039136681865,-141.26246580335567
0.17,3.7662669389428776,8.831852397399555,1.5159989646003253,1.8312100534749207,-1.6828277990903941,0.9437201385262056,4.660943937846443,-140.6930883114766
0.17250000000000001,3.770840650188288,8.82761742259023,1.5183147227565144,1.8277596375778653,-1.705147847451941,0.9089011175572729,4.357405394609505,-140.12413882829316
0.17500000000000002,3.775405835296437,8.823326674293002,1.520543707731547,1.8243891303517106,-1.7274465489291522,0.8743015007760953,4.064423506971052,-139.5556173538054
0.1775,3.779962690655619,8.818980206547224,1.5226864672169351,1.8210958252596865,-1.7497233691322083,0.8399206332938999,3.7819982749310883,-138.98752388801333
0.18,3.784511405887598,8.81457807468138,1.5247435472690454,1.8178770156524093,-1.771977811005716,0.8057578618822158,3.510129698489606,-138.41985843091692
0.1825,3.789052163847745,8.810120335221686,1.5267154923132438,1.8147299951010953,-1.7942094132830304,0.7718125349686643,3.2488177776466083,-137.85262098251616
0.185,3.793585140625979,8.805607045804532,1.5286028451480314,1.8116520577056405,-1.8164177489549933,0.7380840026327609,2.9980625124020963,-137.28581154281113
0.1875,3.7981105055484483,8.801038265092735,1.5304061469491685,1.8086404983788351,-1.83860242375327,0.7045716166017267,2.75786390275607,-136.71943011180176
0.19,3.802628421179891,8.79641405269557,1.5321259372737888,1.8056926131079494,-1.860763074648435,0.6712747302463119,2.5282219487085285,-136.15347668948806
0.1925,3.8071390433266252,8.791734469092527,1.533762754064503,1.8028056991949,-1.8828993683629438,0.6381926985766281,2.3091366502594712,-135.58795127586998
0.195,3.8116425210401146,8.786999575560783,1.5353171336534914,1.7999770554761796,-1.9050109998991078,0.6053248782379927,2.1006080074089,-135.0228538709476
0.1975,3.816138996621056,8.782209434106317,1.5367896107665882,1.7972039825237038,-1.9270976910821653,0.5726706275067835,1.9026360201568133,-134.45818447472095
0.2,3.820628605623951,8.777364107398663,1.5381807185273524,1.794483782827701,-1.949159189118533,0.5402293062863028,1.7152206885032122,-133.89394308718994
0.2025,3.8251114768621113,8.772463658709235,1.5394909884611307,1.7918137609627447,-1.9711952651692997,0.5080002761026533,1.538362012448096,-133.3301297083546
0.20500000000000002,3.8295877324130587,8.767508151853216,1.5407209504991095,1.7891912237380003,-1.9932057129390142,0.4759829001006237,1.3720599919914642,-132.76674433821492
0.20750000000000002,3.834057487624284,8.762497651134936,1.541871132982356,1.7866134803327312,-2.015190347279802,0.44417654303958526,1.2163146271333185,-132.20378697677094
0.21,3.838520851119326,8.757432221296739,1.54294206266585,1.7840778424180828,-2.037149002810836,0.41258057128939796,1.0711259178736592,-131.64125762402261
0.2125,3.8429779248041385,8.75231192747127,1.543934264722505,1.781581624266138,-2.0590815325531735,0.38119435282632785,0.9364938642124834,-131.07915627996996
0.215,3.847428803873717,8.74713683513716,1.544848262747178,1.7791221428472084,-2.0809878065799623,0.35001725722897437,0.8124184661497929,-130.51748294461302
0.2175,3.851873576818954,8.741907010078068,1.5456845787606723,1.776696717916305,-2.102867710682004,0.31904865567420787,0.6988997236855872,-129.9562376179517
0.22,3.856312325433695,8.736622518345031,1.5464437332137264,1.7743026720897006,-2.1247211450486665,0.2882879209331179,0.5959376368198666,-129.39542029998609
0.2225,3.860745124821982,8.731283426222111,1.5471262449909953,1.771937330912479,-2.1465480229641116,0.25773442736697116,0.5035322055526312,-128.83503099071615
0.225,3.865172043405447,8.725889800195258,1.5477326314150204,1.7695980229179311,-2.1683482695188165,0.22738755092318036,0.42168342988388086,-128.27506969014186
0.2275,3.8695931429308494,8.720441706924397,1.5482634082501905,1.7672820796796451,-2.190121820336344,0.1972466691312826,0.3503913098136158,-127.71553639826327
0.23,3.874008478477736,8.714939213218667,1.5487190897066914,1.7649868358571055,-2.211868620315322,0.16731116109892857,0.28965584534183575,-127.15643111508032
0.2325,3.878418098466205,8.709382386014786,1.5491001884444466,1.7627096292355944,-2.2335886223865837,0.1375804075078815,0.2393986863349194,-126.5976904151693
0.23500000000000001,3.882822044689234,8.703771292357985,1.5494072155953282,1.760447820331925,-2.255281786706966,0.1080538052281012,0.19789612984066304,-126.0379189391968
0.23750000000000002,3.8872203528833595,8.698105999374532,1.549640681187462,1.7581992033895144,-2.2769480881664377,0.07873107425627394,0.16444302464895455,-125.47654585834275
0.24,3.8916130534942712,8.69238657424357,1.5498010947143759,1.755961751452516,-2.2985875094872124,0.04961206686163598,0.13903937075979433,-124.91357117260706
0.2425,3.896000171903348,8.686613084183515,1.5498889653007402,1.7537334400296705,-2.320200036456032,0.020696635687956863,0.12168516817318153,-124.34899488198982
0.245,3.9003817284338416,8.680785596445505,1.5499048017033008,1.751512247112146,-2.3417856570271725,-0.008015366247410137,0.11238041688911676,-123.78281698649096
0.2475,3.904757738357105,8.674904178309102,1.5498491123118139,1.7492961531900728,-2.3633443604367925,-0.036524085554475075,0.11112511690759994,-123.21503748611055
0.25,3.909128211898857,8.668968897080179,1.5497224051499747,1.7470831412682615,-2.3848761363286073,-0.06482966847155612,0.11791926822863108,-122.64565638084851
0.2525,3.9134931542454914,8.662979820090975,1.5495251878763465,1.7448711968815833,-2.406380973890876,-0.09293226086622183,0.13276287085221003,-122.07467367070494
0.255,3.917852565550419,8.656937014702308,1.5492579677852865,1.7426583081104716,-2.427858861004687,-0.12083200823623119,0.1556559247783369,-121.50208935567971
0.2575,3.9222064409404513,8.65084054830789,1.548921251807868,1.740442465596988,-2.4493097834035273,-0.148529055710471,0.1865984300070116,-120.92790343577298
0.26,3.9265547705222286,8.644690488340737,1.5485155465128033,1.738221662561882,-2.4707337238441123,-0.1760235480498913,0.22559038653823443,-120.3521159109846
0.2625,3.9308975393886865,8.638486902281633,1.5480413581073602,1.7359938948230575,-2.4921306612884764,-0.20331562964843786,0.2726317943720052,-119.77472678131465
0.265,3.935234727625575,8.632229857669623,1.5474991924382802,1.733757160815843,-2.5135005700972965,-0.23040544453398293,0.32772265350832375,-119.19573604676313
0.2675,3.93956631031803,8.62591942211452,1.546889554992691,1.731509461615448,-2.5348434192344445,-0.25729313636925316,0.3908629639471901,-118.61514370733
0.27,3.943892257557204,8.619555663311377,1.5462129508990199,1.7292488009619749,-2.556159171482753,-0.2839788484527554,0.4620527256886047,-118.03294976301528
0.2725,3.9482125344469625,8.6131386490569,1.5454698849279012,1.7269731852883368,-2.577447782670988,-0.31046272371969996,0.5412919387325669,-117.44915421381901
0.275,3.952527101110654,8.606668447267793,1.544660861493085,1.7246806237514223,-2.598709200912016,-0.33674490474292185,0.6285806030790773,-116.86375705974112
0.2775,3.956835912697964,8.600145126000989,1.5437863846523414,1.7223691282668288,-2.619943365852163,-0.36282553373379933,0.7239187187281353,-116.27675830078167
0.28,3.961138919391859,8.593568753475736,1.5428469581083626,1.7200367135474746,-2.6411502079317573,-0.3887047525431704,0.8273062856797415,-115.6881579369406
0.28250000000000003,3.965436066415632,8.586939398097533,1.5418430852096634,1.7176813971463878,-2.6623296476568563,-0.4143827026622467,0.9387433039338955,-115.09795596821795
0.28500000000000003,3.9697272940400627,8.580257128483854,1.5407752689514793,1.7153011995039502,-2.6834815948821555,-0.43985952522352545,1.0582297734905974,-114.50615239461372
0.28750000000000003,3.9740125375906983,8.573522013491665,1.5396440119766621,1.7128941439998662,-2.7046059481050815,-0.4651353610016988,1.1857656943498474,-113.91274721612791
0.29,3.978291727455274,8.566734122246688,1.538449816576573,1.7104582570101114,-2.7257025937710737,-0.49021035041456085,1.321351066511642,-113.31774043276053
0.2925,3.9825647890912794,8.559893524174383,1.5371931846919737,1.707991567969101,-2.746771405590063,-0.5150846335239126,1.4649858899759876,-112.72113204451155
0.295,3.9868316430336903,8.553000289032632,1.5358746179139162,1.705492109437306,-2.7678122438641526,-0.5397583500364646,1.616670164742881,-112.12292205138098
0.2975,3.991092204902872,8.546054486946085,1.534494617484628,1.7029579171745322,-2.788824954826516,-0.5642316393047366,1.7764038908123223,-111.52311045336882
0.3,3.995346385412678,8.539056188442148,1.5330536842983968,1.7003870302190645,-2.809809369991527,-0.5885046403279565,1.9441870681843114,-110.92169725047506
0.3025,3.9995940903787495,8.532005464488574,1.531552318902454,1.6977774909728625,-2.830765305516136,-0.6125774917529548,2.120019696858849,-110.31868244269972
0.305,4.003835220727042,8.52490238653265,1.5299910214978525,1.6951273452929878,-2.8516925615725115,-0.6364503318750594,2.303901776835934,-109.7140660300428
0.3075,4.008069672502579,8.51774702654193,1.5283702919403457,1.6924346425894243,-2.8725909217319767,-0.6601232986389856,2.495833308115567,-109.1078480125043
0.31,4.012297336878469,8.510539457046484,1.5266906297412626,1.6896974359294425,-2.8934601523602534,-0.6835965296397254,2.695814290697748,-108.50002839008422
