t,x,y,ang,vx,vy,omega,thrust,torque
0.0,-0.20187690609318132,1.071427313700707,-0.7026217058875985,-1.4317594455951659,-1.5709549063562511,-2.6107849871651005,176.01189952753188,200.0
0.0025,-0.20541844807064177,1.0675136493577986,-0.7090827476170909,-1.401444389692665,-1.5600095857011036,-2.55807069863977,168.52604151510715,200.0
0.005,-0.20888550808101428,1.0636253302993435,-0.7154121707503189,-1.3721760760466457,-1.5506766518117896,-2.5054900536121845,174.19270759028367,199.9972261502004
0.0075,-0.21227802919600797,1.0597614459195457,-0.721610309771797,-1.341813276301516,-1.54046259299845,-2.453043352571099,168.72719379114724,199.91637552856452
0.01,-0.2155955695037853,1.055921580361869,-0.7276775216199367,-1.31219320380352,-1.531460003066133,-2.400748250803319,172.58480857293392,199.77206410768372
0.0125,-0.21883806532747746,1.0521048944992395,-0.7336142031028119,-1.2817779977284822,-1.5219191646720358,-2.3486189901958574,168.61443726161758,199.58027044130068
0.015,-0.22200516663916986,1.0483109137763826,-0.7394207819827608,-1.2518790591827307,-1.5132946128643825,-2.296666093846686,171.12714516829718,199.3283363246697
0.0175,-0.225096812806087,1.044538855549079,-0.7450977159448221,-1.221414390827564,-1.5043811875600615,-2.2449029755949,168.23637100071863,199.02765309618167
0.02,-0.22811273683070463,1.0407882004033053,-0.7506454928829204,-1.1913025909293216,-1.4961710873492138,-2.1933403898355586,169.76623877768625,198.66950367700016
0.0225,-0.2310528900523771,1.0370582094159166,-0.7560646300552879,-1.1607983814413734,-1.4878496594268085,-2.1419910727812317,167.63430677617887,198.26188947974686
0.025,-0.23391708052859525,1.0333483298947237,-0.7613556742141616,-1.1305334841947816,-1.4800810018560917,-2.0908658842168952,168.4567389575229,197.79897021946795
0.0275,-0.23670527935022945,1.0296578561214718,-0.7665192009100842,-1.1000057612023593,-1.4723247046101637,-2.039977002444235,166.84209488139123,197.28629780566655
0.03,-0.23941736272371042,1.0259862115102463,-0.7715558145005841,-1.0696421033064274,-1.4650168568029331,-1.9893352953048813,167.16135789364697,196.72008436074776
0.0325,-0.24205332798220652,1.0223327151481014,-0.7764661475700718,-1.0391120063677375,-1.4578056420651073,-1.938952476104921,165.88649868885838,196.10415092351303
0.035,-0.24461311370049837,1.018696773926865,-0.7812508608477966,-1.0086993664534896,-1.4509719905311584,-1.8888393477944205,165.850332830583,195.43614069738857
0.0375,-0.24709674863902154,1.0150777252295593,-0.7859106427154033,-0.9781921289111887,-1.444291087545069,-1.839007229121761,164.78795530381035,194.7186783773743
0.04,-0.24950422903581282,1.01147496504259,-0.7904462090590398,-0.9477765655570776,-1.4379404670761593,-1.7894668052088283,164.50058209849777,193.95038237174006
0.0425,-0.2518356190317006,1.0078878441458214,-0.7948583028419816,-0.9173205478197607,-1.4317790725517034,-1.7402290525126705,163.5615573778309,193.13306823360077
0.045,-0.2540909687757755,1.0043157517745331,-0.7991476939105725,-0.886945146263393,-1.4259169548979624,-1.6913045012198855,163.09471109222835,192.26600380206193
0.0475,-0.2562703806422515,1.0007580485207979,-0.8033151786142602,-0.8565709685779554,-1.4202671655566832,-1.6427038235664346,162.21811093007264,191.35046879687698
0.05,-0.25837395572934385,0.9972141198527186,-0.8073615795804087,-0.8262764623818228,-1.4148966090694917,-1.594437369786143,161.61999672697536,190.38615363948173
0.0525,-0.2604018365568233,0.993683333621809,-0.8112877453683787,-0.7960162607578127,-1.4097525849508568,-1.546515535223093,160.76515754880543,189.37399031460524
0.055,-0.2623541728251974,0.9901650736111695,-0.8150945502243191,-0.7658415169585253,-1.4048749652939874,-1.4989484740659984,160.06744213045178,188.31393782812714
0.0575,-0.2642311483343555,0.9866587131599843,-0.8187828937594733,-0.7357283266312681,-1.4002322972862402,-1.4517463242084279,159.2078873725424,187.20670673976122
0.06,-0.26603295948780664,0.9831636357778859,-0.8223537006928815,-0.7057106993573254,-1.3958478502121892,-1.404919034074561,158.4309560363204,186.0524226733618
0.0625,-0.26775983187351854,0.9796792190911748,-0.8258079205468968,-0.6757779569918779,-1.391703097976026,-1.3584764979135542,157.54990453580038,184.85165758981609
0.065,-0.269412006998923,0.9762048472652372,-0.8291465273832775,-0.6459535249003275,-1.3878113092808555,-1.3124284530666561,156.70667939160577,183.6046378516924
0.0675,-0.27098975225129046,0.9727399014174433,-0.8323705195110223,-0.6162346733288459,-1.384161674342839,-1.2667845600173249,155.7938348889447,182.31184990994407
0.07,-0.272493352822009,0.9692837669621579,-0.8354809192195067,-0.5866383812522209,-1.380761551276221,-1.2215543426417996,154.89245806606291,180.97357932004488
0.0725,-0.2739231175177114,0.9658358279896329,-0.838478772495301,-0.557166557800959,-1.3776046526658827,-1.1767472348571366,153.94178510311573,179.5902603259117
0.075,-0.2752793738790647,0.9623954715293972,-0.8413651487547017,-0.5278322840194318,-1.3746949071800891,-1.1323725465800734,152.9874457567686,178.1622120996672
0.0775,-0.2765624714430888,0.9589620843118697,-0.8441411405672901,-0.4986400740047458,-1.3720286317776438,-1.0884394905627528,151.99567319418105,176.68983715684848
0.08,-0.27777277878165524,0.9555350551989626,-0.8468078633893076,-0.469600642984259,-1.369607800675562,-1.0449571634303545,150.99181403807512,175.1734729208323
0.0825,-0.2789106852260222,0.952113773349102,-0.8493664552924676,-0.44071988237800924,-1.3674302060071828,-1.001934560977723,149.95745472735092,173.6135025499405
0.085,-0.2799765990304621,0.9486976295788364,-0.8518180766990172,-0.4120070398869261,-1.3654967274866907,-0.9593805678841633,148.9065450224388,172.01027271997035
0.08750000000000001,-0.28097094818287005,0.945286015338926,-0.854163910114816,-0.38346865437350947,-1.363805980090118,-0.9173039664035129,147.82926861391695,170.36415459648657
0.09,-0.28189417921013327,0.9418783234639971,-0.8564051598665382,-0.35511301853560484,-1.3623582411201112,-0.875713430979498,146.73328416106594,168.67549898254532
0.0925,-0.28274675745145983,0.9384739476089993,-0.8585430518383586,-0.3269468894492199,-1.3611525782676817,-0.8346175332121392,145.61352346626205,166.94466938998676
0.095,-0.2835291662183643,0.9350722826547534,-0.860578833211506,-0.2989778880988667,-1.3601889430289618,-0.794024739189408,144.47423453491024,165.17201792458465
0.0975,-0.2842419067536974,0.9316727244013242,-0.8625137722041052,-0.27121273860453904,-1.3594666493284893,-0.7539434123835569,143.8551667878486,163.37758967912433
0.1,-0.2848853688746907,0.9282747798870642,-0.8643491521390976,-0.2435555710331599,-1.3588974425685068,-0.7143772751389974,143.90914595397075,161.60182673009595
0.10250000000000001,-0.28545966584247895,0.9248782068426135,-0.8660862539773655,-0.21588101407927915,-1.3583690322850903,-0.6753207194116571,143.47952117430376,159.84693683773537
0.105,-0.2859648722653702,0.9214828087566003,-0.8677263440411453,-0.18828352793221734,-1.3579569971342582,-0.6367676425381877,143.36832899441683,158.11182567091683
0.1075,-0.286401107969915,0.9180883627047006,-0.8692706737307687,-0.16070482183282098,-1.3576069596962665,-0.5987122095446663,143.0006171491381,156.39693563468737
0.11,-0.2867684840219894,0.9146946653766117,-0.8707204797501225,-0.13319618033986108,-1.3573575574738186,-0.5611484982862408,142.78794261481318,154.7016088619297
0.1125,-0.2870671414234174,0.9113014999339704,-0.8720769842061157,-0.10573026730396107,-1.3571810093595393,-0.5240707532550947,142.43682250859962,153.02597902382854
0.115,-0.28729722290255716,0.9079086598073688,-0.873341394796609,-0.0783357997865653,-1.3570968582819567,-0.48747320272694106,142.15655633198858,151.36961751631065
0.11750000000000001,-0.28745889285109016,0.9045159316498282,-0.8745149049319819,-0.05100139236422807,-1.3570909994590146,-0.45135018839341373,141.79869681115045,149.73250005192085
0.12,-0.2875523226890762,0.9011231075151669,-0.8755986939017825,-0.023744052297217984,-1.3571732063379949,-0.41569607188901914,141.4688719225573,148.11431809879232
0.1225,-0.2875777009730565,0.8977299761745977,-0.8765939270064448,0.0034395174032035604,-1.3573363391240971,-0.38050530025225604,141.09263608066664,146.51496839743265
0.125,-0.2875352258214817,0.8943363292920417,-0.8775017557113658,0.030538370967703496,-1.3575852185707404,-0.345772358398621,140.72297907275058,144.9342056617255
0.1275,-0.2874251099318642,0.890941957038796,-0.8783233177824118,0.0575517900561512,-1.3579162215736325,-0.31149180175839153,140.32288452355525,143.37188855634056
0.13,-0.28724757663544115,0.8875466511993769,-0.8790597374320215,0.08447198652174609,-1.3583316784983381,-0.27765823213963226,139.91884149371012,141.8278058014154
0.1325,-0.2870028623036475,0.8841502029734553,-0.8797121254551629,0.11129631574329402,-1.3588297285301016,-0.2442663137311928,139.49262155592032,140.30179893694324
0.135,-0.2866912142478682,0.8807524045267957,-0.8802815793698635,0.1380186706544033,-1.3594114586872776,-0.2113107607708175,139.05747222122204,138.79367579713085
0.1375,-0.2863128917983687,0.8773530478966042,-0.880769183551889,0.16463554279846943,-1.3600758856024544,-0.17878634518665373,138.60453578372335,137.3032714280784
0.14,-0.28586816513230984,0.8739519257612689,-0.8811760093709429,0.19114176323428228,-1.3608234793335,-0.14668789017928868,138.14048745882005,135.8304052597078
0.14250000000000002,-0.2853573156820656,0.8705488308981294,-0.8815031153231859,0.217533496441193,-1.3616536910616694,-0.11501027369092465,137.66111959905552,134.3749111902536
0.145,-0.2847806354254969,0.8671435565635467,-0.8817515471637472,0.243806141571784,-1.3625666862666896,-0.08374842493198853,137.1698647034716,132.93661647547066
0.1475,-0.2841384269570503,0.8637358962254618,-0.8819223380366459,0.2699558059925081,-1.3635621304151633,-0.05289732578209047,136.66481424015913,131.51535652925364
0.15,-0.2834310030058851,0.8603256437502917,-0.8820165086039463,0.2959782745310911,-1.364640039236933,-0.02245200877623457,136.14780941245556,130.1109645491016
0.1525,-0.28265868633782365,0.8569125932714572,-0.8820350671728746,0.321869732863733,-1.365800183516904,0.007592442512777568,135.6180761141929,128.72327877560392
0.155,-0.2818218093846603,0.8534965392810172,-0.8819790098217977,0.34762626246929484,-1.3670425055716737,0.03724089476605422,135.0766786061143,127.35213740272809
0.1575,-0.2809207140613729,0.8500772765652079,-0.8818493205244444,0.3732441951838595,-1.3683668278114582,0.06649816503398664,134.52340234462636,125.99738212952911
0.16,-0.27995575144923424,0.8466546002493128,-0.8816469712728149,0.39871986605117593,-1.3697730566078732,0.09536902166991564,134.017875341928,124.658254022526
0.1625,-0.2789272673619694,0.8432283174748593,-0.8813729223718811,0.42406115114855697,-1.3712516740660101,0.12385804602185811,134.15986031621097,123.32757182874957
0.165,-0.2778354433492711,0.8397983782987838,-0.8810281247575336,0.4493915556493147,-1.3726978785893016,0.1519681527123858,134.03220468409458,122.00444883688037
0.1675,-0.2766803734613745,0.8363648123924078,-0.8806135223439123,0.47465761717526767,-1.3741527577115724,0.1797020446086044,134.07398480915174,120.688312349611
0.17,-0.2754621794837688,0.8329276340012928,-0.8801300524616207,0.4998905880320203,-1.3755875740528993,0.20706228573188,133.97787052281137,119.37944165465413
0.17250000000000001,-0.2741809791324243,0.8294868680220752,-0.8795786459588415,0.5250624873628094,-1.3770225382762797,0.23405149797243982,133.95966472043628,118.07752093971904
0.17500000000000002,-0.2728369080357215,0.8260425317513308,-0.8789602272283673,0.5501869545489755,-1.3784435235429997,0.2606722237860474,133.86829155646043,116.78265314482096
0.1775,-0.27143010408432866,0.8225946476651862,-0.8782757142852428,0.5752485486966594,-1.3798605108570277,0.2869270229079873,133.8101868647918,115.49464921961292
0.18,-0.2699607181117724,0.8191432344657786,-0.8775260188077771,0.6002523503289878,-1.3812665398427735,0.3128184050123175,133.71089340957013,114.21352675156888
0.1825,-0.2684289061354569,0.8156883133585122,-0.8767120462029824,0.625189136172142,-1.3826665675183594,0.33834887746396486,133.6231632265901,112.9391598707402
0.185,-0.2668348345116085,0.8122299036479053,-0.8758346956536852,0.650059855234494,-1.3840571580922503,0.3635209122610032,133.5102056645574,111.67152529514989
0.1875,-0.2651786760336601,0.8087680258306262,-0.8748948601772648,0.6748584110094665,-1.3854407934375952,0.3883369697684417,133.39834446557228,110.41052923908774
0.19,-0.2634606123814485,0.8053026994215972,-0.8738934266750187,0.6995837891820949,-1.3868157772501304,0.41279948249825815,133.26936977754653,109.15612932308359
0.1925,-0.2616808321080817,0.8018339444841326,-0.872831275986891,0.7242315066250399,-1.3881833671089205,0.4369108670279479,133.13654635016698,107.90824860733527
0.195,-0.2598395317610213,0.7983617805523866,-0.8717092829412193,0.7487996500748975,-1.3895427288119144,0.460673516075574,132.99086897991972,106.66683629023179
0.1975,-0.25793691479573627,0.794886227391997,-0.8705283164067734,0.7732846069916531,-1.3908945114140054,0.48408980458449785,132.83912058502585,105.43182478615249
0.2,-0.25597319204283864,0.791407304463394,-0.8692892393419739,0.7976840893075707,-1.3922383100349127,0.5071620859001211,132.67687850515264,104.20316011584066
0.2025,-0.2539485810781347,0.7879250313021136,-0.8679929088448963,0.8219949892374003,-1.3935744695130814,0.5298926949605902,132.507691464286,102.98078034566714
0.20500000000000002,-0.251863306366658,0.7844394272500952,-0.8666401762015242,0.8462149029089203,-1.3949027998832306,0.5522839465101663,132.3294310287821,101.76463089786776
0.20750000000000002,-0.24971759885861897,0.7809505116471521,-0.8652318869340493,0.870341046197901,-1.396223492843272,0.5743381368457766,132.14402232176144,100.5546536458858
0.21,-0.24751169597336586,0.777458303695737,-0.8637688808479541,0.8943710277570754,-1.3975364665755545,0.596057543045869,131.95049241815912,99.35079467916712
0.2125,-0.24524584130806787,0.7739628225581561,-0.8622519920787824,0.9183022967394061,-1.3988418350321623,0.6174444239908256,131.74994551107633,98.1529987454145
0.215,-0.2429202845424093,0.7704640872882003,-0.8606820491379632,0.9421325378790408,-1.400139571061956,0.6385010200998587,131.54199412365534,96.96121321612056
0.2175,-0.24053528120437037,0.7669621168810435,-0.8590598749581488,0.9658593878240849,-1.4014297487143348,0.6592295539825366,131.32732367945837,95.77538522910876
0.22,-0.2380910925360331,0.7634569302385957,-0.8573862869377503,0.9894806385764657,-1.402712368535839,0.67963223043008,131.10584477255685,94.5954637276937
0.2225,-0.23558798528911346,0.7599485461955016,-0.8556620969849058,1.0129940904230688,-1.4039874837859005,0.6997112368766596,130.8780266614213,93.42139797647407
0.225,-0.23302623157229066,0.7564369835016282,-0.8538881115607262,1.0363976574552562,-1.4052551090069272,0.7194687435174482,130.8667308644155,92.25405192969154
0.2275,-0.23040605622667398,0.7529223065958957,-0.8520651314587077,1.059731219754289,-1.406478673278605,0.7389071141668659,131.0221730878843,91.09516688716754
0.23,-0.22772759637827894,0.7494046612824498,-0.8501939510684317,1.0830250729057271,-1.4076296556217014,0.7580291079753166,131.046417992089,89.94500787259022
0.2325,-0.22499098353385122,0.7458842033599804,-0.8482753578139663,1.1062534434187772,-1.4087285883274492,0.7768375381798419,131.15415575871694,88.80326262632124
0.23500000000000001,-0.22219636315065136,0.742361081503157,-0.8463101321852053,1.1294309248583414,-1.409760633040554,0.7953351389167126,131.18838240017362,87.67002509164264
0.23750000000000002,-0.21934388101924365,0.7388354490167462,-0.8442990478182937,1.1525426715087617,-1.4107369281188227,0.8135246590422276,131.26478593744326,86.54509371353228
0.24,-0.21643369292264378,0.73530745526743,-0.8422428715440424,1.175595524301626,-1.4116494825275154,0.8314087939899568,131.29846807355824,85.42848535000996
0.2425,-0.2134659573701832,0.7317772519475892,-0.8401423634583652,1.1985804693175617,-1.4125044291591473,0.8489902362452716,131.35247065606407,84.32005790158593
0.245,-0.21044084066898947,0.728244988487294,-0.8379982769754545,1.22150027617881,-1.4132974430987337,0.8662716387168359,131.38042677609047,83.21978812374347
0.2475,-0.20735851298135258,0.7247108154261528,-0.8358113588923409,1.244349095661088,-1.4140319630560467,0.8832556422302306,131.4171024656374,82.12756653969555
0.25,-0.20421915098598442,0.7211748819316187,-0.833582349443917,1.2671275604228396,-1.4147056469277108,0.8999448556840682,131.43692923226246,81.04334922426926
0.2525,-0.20102293569093213,0.7176373376331612,-0.8313119823637598,1.2898315769022817,-1.4153204680410254,0.9163418712390478,131.45932922755523,79.96704513737278
0.255,-0.19777005381735682,0.7140983312659731,-0.8290009849395024,1.312460666209011,-1.415875167815657,0.9324492535015032,131.47007693011744,78.89859995865189
0.2575,-0.19446069654909762,0.7105580116795471,-0.8266500780710486,1.3350117385564637,-1.416370913879356,0.9482695480563007,131.48017926357622,77.83793350486837
0.26,-0.191095060233436,0.7070165270886558,-0.8242599763255213,1.3574837518419378,-1.416807045966733,0.9638052755542733,131.4816622134698,76.78498655071785
0.2625,-0.18767334563587923,0.7034740256342001,-0.8218313879934769,1.3798742144314324,-1.4171842837196074,0.9790589366057478,131.4808666704915,75.73968567111494
0.265,-0.18419575827276272,0.6999306549652193,-0.8193650151430368,1.402181816630102,-1.4175023007246175,0.9940330085586352,131.47330074760595,74.70196968617313
0.2675,-0.1806625079419096,0.6963865625544313,-0.8168615536744397,1.4244044434317282,-1.4177615646062107,1.0087299483796381,131.4626887376877,73.67176968129746
0.27,-0.17707380885542884,0.6928418954625722,-0.8143216933731595,1.4465406780167211,-1.417961937154055,1.023152190923253,131.44649891269736,72.64902411432587
0.2725,-0.17342987932321657,0.689296800518122,-0.8117461179629909,1.468588659259495,-1.4181037424621201,1.0373021506870033,131.426970906901,71.63366732690697
0.275,-0.16973094177687098,0.6857514241831354,-0.8091355051580635,1.490546950682848,-1.4181869494571573,1.051182220914363,131.40268786717377,70.62563827363672
0.2775,-0.16597722253941974,0.6822059126569708,-0.8064905267145802,1.512413875785949,-1.4182117994019854,1.0647947747118192,131.37503656184583,69.62487383637836
0.28,-0.1621689517899605,0.6786604117992249,-0.8038118484816931,1.5341880260638359,-1.4181783227542952,1.0781421646222056,131.34324049698157,68.63131392562248
0.28250000000000003,-0.15830636338320955,0.6751150671904748,-0.8011001304519745,1.555867869622065,-1.4180867122755192,1.0912267233748656,131.3081899797184,67.64489754185612
0.28500000000000003,-0.1543896947822253,0.6715700240876914,-0.7983560268111501,1.5774520515857362,-1.4179370340179005,1.1040507637261492,131.26947959024474,66.66556579030129
0.28750000000000003,-0.1504191869076978,0.6680254274604007,-0.7955801859873619,1.5989391607784251,-1.4177294518703725,1.1166165789951414,131.2483856465019,65.69328380321649
0.29,-0.14639507944435015,0.6644814264899391,-0.792773250692774,1.6203315946238717,-1.417460431463463,1.1289264486506099,131.3741378008351,64.72822628233634
0.2925,-0.14231757738028272,0.6609382075536013,-0.7899358578977536,1.6416546974167952,-1.4171037441887298,1.1409826866469743,131.41433458091174,63.77064289531073
0.295,-0.13818687416243758,0.6573959716625029,-0.787068638723159,1.6628923854994206,-1.416673922479514,1.1527876586147654,131.51528147952823,62.820323966829626
0.2975,-0.13400317091217973,0.6538549156242527,-0.7841722184437048,1.6840545853785782,-1.4161597897098672,1.1643436758618186,131.56197829254307,61.87732159628051
0.3,-0.12976666940198409,0.6503152388049783,-0.7812472165481472,1.7051308636420055,-1.4155704812036338,1.1756530558439326,131.6455551067497,60.94148359878575
0.3025,-0.12547757733164683,0.6467771378488605,-0.7782942467828131,1.7261269006962332,-1.4148990347288775,1.186718075066544,131.69404331851953,60.01282008756936
