t,x,y,ang,vx,vy,omega,thrust,torque
0.0,-0.8164767933132022,3.555586963395625,5.845829706634116,1.0467734760390337,1.2389422917937505,0.0867029564695529,86.63592031485422,21.060935758850228
0.0025,-0.8138500341438243,3.5586762878708083,5.846052259275361,1.0546314945907294,1.2325189667261112,0.09133719588586928,86.64231423320204,21.01880641465529
0.005,-0.8112036469066959,3.561749568469233,5.846286370680365,1.0624758951385072,1.2261072054975537,0.09594997655493988,86.64892148810335,20.973884393124884
0.0075,-0.8085376658818075,3.564806834274095,5.846531986465393,1.0703064898948382,1.2197071468518723,0.10054070923317127,86.65574207955812,20.926169694259013
0.01,-0.8058521258171814,3.5678481147144536,5.846789050775469,1.078123092225885,1.2133189287322375,0.10510880617084535,86.6627760075664,20.875662318057678
0.0125,-0.8031470619259601,3.570873439563206,5.84705750628811,1.0859255166728319,1.2069426882633525,0.109653681108332,86.67002327212816,20.82236226452088
0.015,-0.8004225098834427,3.57388283893502,5.847337294217036,1.093713578973235,1.2005785617338014,0.11417474927231135,86.6774838732434,20.766269533648618
0.0175,-0.7976785058240669,3.576876343284222,5.847628354315893,1.1014870960824,1.19422668457859,0.11867142737200562,86.68515781091213,20.70738412544089
0.02,-0.7949150863383379,3.5798539834026406,5.847930624881949,1.109245886194783,1.1878871913618843,0.12314313359542055,86.69304508513432,20.64570603989769
0.0225,-0.792132288469704,3.582815790417409,5.848244042759783,1.116989768765426,1.181560215759948,0.1275892876055963,86.70114569591003,20.581235277019033
0.025,-0.789330149711378,3.585761795788723,5.848568543344974,1.1247185645314237,1.1752458905442844,0.13200931053686782,86.70945964323919,20.51397183680491
0.0275,-0.7865087080031056,3.5886920313075605,5.848904060587772,1.1324320955334277,1.1689443475649814,0.13640262499113487,86.71798692712184,20.44391571925532
0.03,-0.7836680017278788,3.5916065290933545,5.849250526996763,1.140130185137191,1.1626557177342676,0.14076865503414135,86.72672754755799,20.37106692437027
0.0325,-0.780808069708597,3.5945053215916296,5.849607873642522,1.1478126580551542,1.1563801310102777,0.14510682619176407,86.73568150454763,20.29542545214975
0.035,-0.7779289512046728,3.597388441571597,5.849976030161259,1.1554793403680783,1.150117716381033,0.14941656544631096,86.74484879809074,20.216991302593765
0.0375,-0.7750306859085843,3.6002559221237087,5.85035492475846,1.163130059546725,1.1438686018486384,0.1536973012328287,86.75422942818734,20.13576447570232
0.04,-0.7721133139423728,3.6031077966571736,5.850744484212508,1.1707646444735884,1.1376329144136976,0.15794846343541968,86.76382339483739,20.0517449714754
0.0425,-0.7691768758540863,3.605944098897434,5.851144633878303,1.1783829254646798,1.1314107800599515,0.1621694833835682,86.77363069804099,19.96493278991303
0.045,-0.7662214126141685,3.608764862883605,5.851555297690874,1.1859847342913692,1.1252023237391395,0.16635979384847624,86.783651337798,19.875327931015182
0.0475,-0.7632469656117928,3.6115701229658757,5.851976398168975,1.1935699042022856,1.1190076693560878,0.17051882903940815,86.79388531410855,19.78293039478187
0.05,-0.7602535766511421,3.6143599138028732,5.852407856418677,1.201138269945278,1.1128269397540271,0.17464602460004502,86.80433262697258,19.68774018121311
0.0525,-0.7572412879476328,3.6171342703589913,5.852849592136949,1.2086896677894399,1.1066602567001407,0.17874081760484797,86.81499327639007,19.589757290308864
0.055,-0.7542101421240843,3.6198932279016813,5.853301523615233,1.2162239355472004,1.1005077408713464,0.18280264655543077,86.82586726236104,19.488981722069166
0.0575,-0.7511601822068331,3.6226368219987095,5.8537635677430035,1.2237409125964824,1.0943695118403138,0.1868309513769417,86.83695458488553,19.385413476493998
0.06,-0.748091451621791,3.62536508851538,5.854235640011323,1.2312404399029315,1.0882456880617193,0.1908251734144545,86.8482552439635,19.27905255358337
0.0625,-0.7450039941904482,3.628078063611721,5.854717654516389,1.238722360042217,1.0821363868587401,0.19478475542936866,86.85976923959494,19.16989895333727
0.065,-0.74189785412582,3.630775783739642,5.855209523963068,1.246186517222408,1.0760417244097908,0.19870914159581846,86.87149657177984,19.057952675755708
0.0675,-0.738773076028338,3.6334582856400526,5.8557111596684255,1.253632757306424,1.0699618157355022,0.2025977774970915,86.88343724051825,18.943213720838685
0.07,-0.7356297048816848,3.636125606339954,5.856222471565242,1.2610609278345664,1.0638967746859456,0.20645011012205616,86.89559124581014,18.82568208858619
0.0725,-0.7324677860485721,3.6387777831494974,5.856743368205523,1.2684708780471268,1.0578467139281045,0.21026558786159805,86.90795858765553,18.70535777899824
0.075,-0.7292873652664625,3.6414148536590085,5.857273756764001,1.2758624589070802,1.0518117449335944,0.21404366050506554,86.92053926605438,18.582240792074817
0.0775,-0.7260884886432345,3.644036855735986,5.857813543041627,1.2832355231228592,1.045791977966632,0.2177837792367244,86.93333328100672,18.456331127815933
0.08,-0.7228712026527899,3.646643827522068,5.85836263146905,1.290589925171214,1.0397875220722572,0.22148539663222128,86.94634063251254,18.32762878622158
0.0825,-0.7196355541306049,3.6492358074299682,5.858920925110096,1.2979255213201606,1.033798485064807,0.22514796665505626,86.95956132057188,18.19613376729177
0.085,-0.7163815902692223,3.651812834140387,5.859488325665231,1.3052421696520131,1.0278249735166447,0.2287709446530643,86.97299534518467,18.06184607102649
0.08750000000000001,-0.7131093586136878,3.654374946598892,5.860064733475014,1.31253973008651,1.0218670927471434,0.23235378735490556,86.98664270635095,17.924765697425745
0.09,-0.7098189070569271,3.656922184012771,5.860650047523553,1.319818064404028,1.0159249468119274,0.23589595286656476,87.00050340407071,17.78489264648954
0.0925,-0.7065102838350646,3.6594545858478607,5.861244165441935,1.327077036268889,1.009998638492371,0.23939690066785926,87.01457743834395,17.64222691821786
0.095,-0.7031835375226854,3.661972191825348,5.861846983511661,1.3343165112527604,1.0040882692853557,0.24285609160895613,87.0288648091707,17.496768512610725
0.0975,-0.6998387170280365,3.664475041918546,5.862458396668069,1.3415363568581489,0.9981939393932879,0.24627298790689792,87.04336551655089,17.348517429668117
0.1,-0.6964758715881709,3.6669631763496446,5.863078298503743,1.3487364425419903,0.9923157477143774,0.24964705314213728,87.05807956048463,17.197473669390053
0.10250000000000001,-0.693095050764032,3.669436635586441,5.863706581271918,1.3559166397393358,0.9864537918331757,0.2529777522550805,87.0730069409718,17.04363723177652
0.105,-0.689696304435478,3.6718954603390404,5.864343135889878,1.363076821887135,0.980608168011379,0.25626455154263955,87.08814765801247,16.88700811682752
0.1075,-0.6862796827962478,3.6743396915565403,5.864987851942339,1.3702168644481163,0.974778971178891,0.2595069186547931,87.10350171160661,16.727586324543058
0.11,-0.6828452363488666,3.6767693704236892,5.865640617684832,1.377336644934768,0.9689662949251515,0.26270432259115617,87.11906910175425,16.56537185492313
0.1125,-0.6793930158994911,3.679184538357525,5.86630132004707,1.3844360429334166,0.9631702314907267,0.26585623369755845,87.13484982845537,16.40036470796774
0.115,-0.6759230725526949,3.6815852370039917,5.8669698446363086,1.3915149401284073,0.9573908717591643,0.26896212366263134,87.15084389170998,16.23256488367688
0.11750000000000001,-0.6724354577061932,3.6839715082345386,5.867646075740702,1.3985732203263836,0.9516283052491128,0.27202146551440354,87.16705129151808,16.06197238205056
0.12,-0.6689302230455063,3.686343394142697,5.868329896332644,1.4056107694806694,0.9458826201067045,0.2750337336169055,87.18346790543609,15.888724587926223
0.1225,-0.6654074205390816,3.688700937039462,5.8690211881117005,1.412627475300677,0.9401539021555766,0.2779984353307695,87.20000624763533,15.715737060046687
0.125,-0.6618671024443472,3.6910441794236375,5.869719832387718,1.4196232188977411,0.934442215823021,0.2809157512335932,87.21663113073787,15.544182455388311
0.1275,-0.6583093213175669,3.6933731639433156,5.8704257112593945,1.4265978800909775,0.9287476161146084,0.28378613171513445,87.23334255474369,15.374060773951092
0.13,-0.6547341300126543,3.6956879333824064,5.871138707949974,1.4335513409375746,0.9230701566817444,0.286610026023304,87.2501405196528,15.20537201573503
0.1325,-0.6511415816756061,3.69798853065727,5.871858706804397,1.4404834857103532,0.9174098898357993,0.28938788226706014,87.26702502546519,15.03811618074013
0.135,-0.6475317297389904,3.7002749988133856,5.872585593286454,1.4473942008754497,0.9117668665622815,0.2921201474192965,87.2839960721809,14.872293268966384
0.1375,-0.6439046279164916,3.702547381022052,5.873319253975951,1.4542833750701196,0.9061411365350502,0.29480726731972196,87.30105365979988,14.707903280413793
0.14,-0.64026033019751,3.70480572057713,5.874059576565882,1.46115089908066,0.9005327481305637,0.29744968667773375,87.31819778832214,14.544946215082366
0.14250000000000002,-0.636598890841817,3.707050060891812,5.874806449859602,1.4679966658204464,0.8949417484421571,0.30004784907528304,87.3354284577477,14.383422072972094
0.145,-0.6329203643742639,3.7092804454954376,5.875559763768017,1.4748205703080814,0.8893681832943485,0.3026021969697331,87.35274566807657,14.223330854082983
0.1475,-0.6292248055795473,3.7114969180303343,5.87631940930677,1.4816225096456546,0.8838120972571668,0.30511317169671065,87.3701494193087,14.064672558415028
0.15,-0.6255122694970262,3.713699522248703,5.877085278593447,1.4884023829971067,0.8782735336604991,0.3075812134729496,87.38763971144414,13.907447185968229
0.1525,-0.6217828114155952,3.715888302009533,5.8778572648447796,1.4951600915667003,0.8727525346084528,0.31000676139912775,87.40521654448285,13.751654736742593
0.155,-0.6180364868686101,3.7180633012755573,5.878635262373858,1.5018955385775894,0.8672491409937296,0.3123902534626963,87.42287991842487,13.59729521073811
0.1575,-0.6142733516288675,3.720224564110241,5.879419166587353,1.5086086292504903,0.8617633925120071,0.314732126540702,87.4406298332702,13.444368607954791
0.16,-0.6104934617036372,3.7223721346748073,5.880208873982744,1.5152992707824473,0.8562953276763239,0.31703281640260245,87.45846628901876,13.292874928392623
0.1625,-0.606696873329748,3.7245060572252986,5.88100428214555,1.5219673723256921,0.8508449838314668,0.31929275771307414,87.47638928567066,13.142814172051617
0.165,-0.6028836429687262,3.7266263761096736,5.881805289746577,1.5286128449665959,0.8454123971683544,0.32151238403481314,87.49439882322584,12.994186338931769
0.1675,-0.5990538273019863,3.728733135764941,5.882611796539159,1.5352356017047097,0.8399976027384147,0.3236921278313291,87.5124949016843,12.846991429033078
0.17,-0.5952074832260742,3.7308263807143294,5.883423703356422,1.5418355574318914,0.8346006344679541,0.32583242046973176,87.53067752104606,12.701229442355547
0.17250000000000001,-0.5913446678479622,3.7329061555644905,5.884240912108538,1.5484126289115179,0.829221525172513,0.32793369222351076,87.54894668131111,12.556900378899174
0.17500000000000002,-0.5874654384803968,3.734972505002742,5.885063325780003,1.5549667347577791,0.8238603065712073,0.32999637227530815,87.56730238247945,12.414004238663956
0.1775,-0.5835698526372964,3.7370254737943434,5.885890848426905,1.5614977954150524,0.8185170093010501,0.3320208887196839,87.58574462455108,12.2725410216499
0.18,-0.5796579680292028,3.73906510677981,5.886723385174213,1.5680057331373551,0.8131916629312522,0.33400766856587455,87.604273407526,12.132510727856996
0.1825,-0.5757298425587813,3.741091448872259,5.887560842213066,1.5744904719678732,0.8078842959774989,0.3359571377405448,87.6228887314042,11.993913357285258
0.185,-0.5717855343163746,3.743104545054795,5.888403126798067,1.580951937718563,0.8025949359161989,0.3378697210905319,87.64159059618571,11.856748909934671
0.1875,-0.5678251015756053,3.7451044403779292,5.889250147244593,1.5873900579498266,0.7973236091987036,0.3397458423855836,87.6603790018705,11.721017385805244
0.19,-0.5638486027890308,3.7470911799570357,5.890101812926098,1.593804761950256,0.7920703412654936,0.3415859243210883,87.67925394845855,11.586718784896977
0.1925,-0.5598560965838477,3.7490648089698397,5.890958034271434,1.6001959807164459,0.78683515656033,0.34339038852079945,87.69821543594995,11.45385310720987
0.195,-0.5558476417576471,3.751025372653945,5.89181872276218,1.6065636469328732,0.7816180785443685,0.34515965553955197,87.7172634643446,11.322420352743915
0.1975,-0.5518232972742199,3.7529729163043943,5.892683790929965,1.6129076949518413,0.7764191297102321,0.3468941448659723,87.73639803364256,11.192420521499123
0.2,-0.5477831222594122,3.754907485271267,5.893553152353812,1.619228060773486,0.7712383315960422,0.34859427492518164,87.75561084895133,11.063784043422865
0.2025,-0.5437271759980142,3.7568291249549106,5.894426721637426,1.6255246812396094,0.7660757028819082,0.3502604470472243,87.77483354198752,10.935937507213787
0.20500000000000002,-0.5396555179387776,3.758737880781447,5.895304414221301,1.6317974883403987,0.7609312455112813,0.35189292938680056,87.79405092936653,10.808753568380059
0.20750000000000002,-0.5355682077002029,3.7606337981763223,5.896186146178763,1.6380464142854658,0.7558049570021482,0.3534919600688507,87.81326301108834,10.68223222692168
0.21,-0.5314653050681976,3.7625169225576474,5.8970718341776935,1.6442713929375892,0.7506968339701351,0.3550577766146106,87.83246978715299,10.556373482838657
0.2125,-0.5273468699919567,3.7643872993339547,5.897961395479028,1.6504723598024607,0.745606872138605,0.35659061594314206,87.85167125756044,10.431177336130983
0.215,-0.5232129625798678,3.76624497390198,5.8988547479352444,1.6566492520184597,0.7405350663487585,0.35809071437285994,87.8708674223107,10.306643786798661
0.2175,-0.5190636430954423,3.76808999164447,5.899751809988871,1.6628020083464559,0.7354814105697374,0.3595583076230544,87.89005828140377,10.182772834841687
0.22,-0.5148989719532718,3.7699223979280148,5.900652500670985,1.6689305691596377,0.7304458979087269,0.3609936308154102,87.90924383483967,10.059564480260066
0.2225,-0.51071900971501,3.771742238100906,5.901556739599722,1.6750348764333671,0.7254285206210586,0.3623969184755215,87.92842408261839,9.937018723053797
0.225,-0.5065238170853801,3.7735495574910174,5.90246444697879,1.6811148737350587,0.7204292701203076,0.36376840453440346,87.9475990247399,9.815135563222876
0.2275,-0.5023134549082069,3.7753444014037174,5.903375543595981,1.6871705062140818,0.7154481369883866,0.3651083223299991,87.96676866120427,9.693915000767312
0.23,-0.4980879841624749,3.7771268151197983,5.904289950821694,1.6932017205916863,0.7104851109856326,0.3664169046086836,87.98593299201143,9.573357035687097
0.2325,-0.4938474659584111,3.7788968438934374,5.9052075906074535,1.6992084651509494,0.7055401810608845,0.3676943835267633,88.0050920171614,9.45346166798223
0.23500000000000001,-0.48959196153359275,3.78065453295018,5.906128385484441,1.7051906897267444,0.7006133353615515,0.3689409906519723,88.0242457366542,9.334228897652716
0.23750000000000002,-0.4853215322490806,3.782399927484949,5.907052258562021,1.7111483456957277,0.69570456124367,0.3701569569649641,88.04339415048982,9.215658724698553
0.24,-0.48103623958557684,3.784133072660078,5.90797913352628,1.7170813859663467,0.6908138452819466,0.37134251286080056,88.06253725866821,9.09775114911974
0.2425,-0.47673614513960816,3.7858540136033714,5.90890893463856,1.7229897649688655,0.6859411732797867,0.37249788815043605,88.08167506118946,8.98050617091628
0.245,-0.4724213106197336,3.7875627954061883,5.909841586734002,1.7288734386454074,0.6810865302793068,0.37362331206219845,88.10080755805352,8.86392379008817
0.2475,-0.4680917978427774,3.789259463121552,5.910777015220091,1.7347323644400159,0.6762499005713293,0.3747190132432664,88.11993474926041,8.748004006635416
0.25,-0.46374766873008644,3.7909440617622843,5.911715146075206,1.7405665012887293,0.6714312677053575,0.3757852197611424,88.13905663481009,8.632746820558008
0.2525,-0.45938898530381295,3.792616636299164,5.912655905847171,1.7463758096096735,0.6666306144995306,0.37682215910512257,88.15817321470259,8.51815223185595
0.255,-0.4550158096832213,3.794277231659111,5.91359922165181,1.752160251293167,0.6618479230505561,0.3778300581877626,88.17728448893791,8.404220240529249
0.2575,-0.45062820408102017,3.795925892723397,5.914545021171514,1.7579197896918413,0.6570831747436188,0.3788091433463398,88.19639045751606,8.290950846577896
0.26,-0.4462262307997189,3.797562664325876,5.915493232653794,1.7636543896107728,0.6523363502622658,0.37975964034431164,88.21549112043701,8.178344050001892
0.2625,-0.44180995222800884,3.7991875912512447,5.916443784909857,1.76936401729763,0.6476074295982642,0.3806817743727705,88.23458647770077,8.066399850801242
0.265,-0.43737943083716907,3.8008007182333245,5.917396607313174,1.7750486404328298,0.6428963920614325,0.3815757700518948,88.25367652930736,7.955118248975943
0.2675,-0.4329347291774969,3.8024020899533695,5.918351629798053,1.7807082281197077,0.6382032162894419,0.3824418514323963,88.27276127525676,7.8444992445259905
0.27,-0.42847590987476286,3.803991751038397,5.91930878285822,1.786342750874696,0.6335278802575897,0.3832802419969639,88.29184071554897,7.734542837451395
0.2725,-0.42400303562669,3.805569746059546,5.920267997545397,1.791952180617515,0.6288703612885393,0.38409116466170384,88.31091485018402,7.625249027752149
0.275,-0.41951616919945833,3.807136119530455,5.921229205467891,1.7975364906613711,0.6242306360620298,0.38487484177757586,88.32998367916186,7.516617815428253
0.2775,-0.41501537342423306,3.8086909159056703,5.9221923387891815,1.803095655703167,0.6196086806245504,0.3856314951318262,88.34904720248252,7.40864920047971
0.28,-0.41050071119371756,3.8102341795790706,5.923157330226512,1.8086296518137175,0.6150044703989818,0.3863613459494166,88.36809526552636,7.301353950700896
0.28250000000000003,-0.4059722454598475,3.8117659548793545,5.924124113052591,1.8141384555352913,0.6104179778193667,0.3870646173761745,88.38708536101662,7.194777140120369
0.28500000000000003,-0.4014300392361599,3.813286286053116,5.925092621110276,1.8196220410452528,0.6058491647710657,0.38774154238070624,88.40601278416833,7.088923757616014
0.28750000000000003,-0.3968741555995288,3.8147952172495425,5.926062788825545,1.8250803834949316,0.6012979914457153,0.38839235449080595,88.42487753498146,6.983793803187834
0.29,-0.39230465768722445,3.8162927925175705,5.927034551207455,1.8305134594144223,0.5967644174522811,0.3890172866422182,88.44367961345603,6.879387276835827
0.2925,-0.38772160869347894,3.817779055804441,5.928007843846662,1.8359212467022075,0.5922484018267986,0.38961657118013887,88.46241901959203,6.775704178559991
0.295,-0.3831250718660786,3.819254050954278,5.928982602913951,1.8413037246147785,0.5877499030420726,0.3901904398607126,88.48109575338947,6.67274450836033
0.2975,-0.37851511050298153,3.820717821706695,5.929958765158762,1.8466608737562542,0.5832688790173347,0.390739123852526,88.49970981484836,6.570508266236843
0.3,-0.373891787948962,3.82217041169542,5.9309362679077235,1.8519926760679961,0.5788052871278563,0.3912628537380972,88.51826120396865,6.468995452189524
0.3025,-0.36925516759227983,3.82361186444695,5.931915049063188,1.8572991148182223,0.5743590842145174,0.39176185951536185,88.5367499207504,6.368206066218382
0.305,-0.36460531286137665,3.8250422233792265,5.932895047101775,1.8625801745916168,0.5699302265933296,0.39223637059915506,88.55517596519357,6.268140108323412
0.3075,-0.3599422872215975,3.826461531800334,5.933876201072913,1.867835841278936,0.5655186700649122,0.3926866158226897,88.5735393372982,6.168797578504616
0.31,-0.35526615417193863,3.8278698329072247,5.934858450597388,1.8730661020666117,0.5611243699239211,0.39311282343903103,88.59184003706424,6.070178476761992
0.3125,-0.3505769772418215,3.8292671697844645,5.935841735865897,1.8782709454263513,0.556747280968429,0.39351522112256737,88.61007806449172,5.972282803095541
