t,x,y,ang,vx,vy,omega,thrust,torque
0.0,-0.35262004919242473,5.348211011817051,0.5466802536260815,0.8647172177298046,-1.4683383100607426,-3.2993972045889435,63.76543626608708,47.48875063974555
0.0025,-0.35046991459043214,5.344528890848195,0.5384559080970083,0.8554111156826958,-1.4773453059981094,-3.2800873882117894,66.25117062998586,47.50412567501742
0.005,-0.34834328682373655,5.3408250181746535,0.5302797803205133,0.8459125000048465,-1.485739589249151,-3.2608229833137288,64.62032154857138,47.51596576970898
0.0075,-0.34623998873680745,5.337099818350845,0.522151755893039,0.8367468031537432,-1.4944074720353844,-3.2416046894866684,66.78920550525805,47.52956322958244
0.01,-0.34415978507485057,5.333353632342559,0.5140717201896018,0.8274376004896143,-1.5025285068471685,-3.2224319847963514,65.45126311372987,47.54014340978196
0.0125,-0.3421024889659766,5.329586874893013,0.5060395585122622,0.8184202819057221,-1.5108650215435895,-3.2033054490755646,67.36614856372364,47.55209349987215
0.015,-0.3400678673644801,5.325799892767375,0.4980551559798024,0.8092985456371776,-1.5187082600349038,-3.1842246495426347,66.26623243617163,47.56144365139426
0.0175,-0.33805572531948336,5.321993092823482,0.4901183976474062,0.8004362299145644,-1.5267196337672613,-3.1651900694701878,67.97524663324937,47.5718617580273
0.02,-0.33606583072286894,5.3181668259885395,0.48222916842075997,0.7915010644000859,-1.5342818182734625,-3.1462013455420483,67.07107637722916,47.58002107268483
0.0225,-0.3340979817478284,5.314321492659818,0.4743873531538612,0.7827993840255144,-1.5419731553823466,-3.1272588821004237,68.61152147658665,47.58901136893746
0.025,-0.3321519463137195,5.310457446711595,0.4665928365816612,0.7740506478386303,-1.5492519853547984,-3.1083623703419736,67.87013869337419,47.59602538665324
0.0275,-0.33022751661703276,5.306575083148436,0.4588455034010385,0.7655144928380245,-1.5566275488675256,-3.08951214925396,69.2712570814666,47.6036833654707
0.03,-0.32832445994893106,5.302674757879721,0.4511452382176778,0.7569525895296522,-1.56362144196891,-3.070707953060362,68.66668488726529,47.60960189565288
0.0325,-0.3264425632129857,5.298756861327461,0.4434919256139203,0.7485862847469674,-1.570684856776586,-3.051950065979088,69.95164665821952,47.61601617534652
0.035,-0.3245815925980317,5.2948217507443385,0.435885450106687,0.7402120133434787,-1.5773927753190573,-3.0332382563466638,69.46319677536955,47.62089181826803
0.0375,-0.3227413302437821,5.290869812591562,0.42832569620497724,0.7320194459371774,-1.5841471766752004,-3.0145727619653275,70.65054622124983,47.62614544739407
0.04,-0.3209215408937623,5.286901404935237,0.42081254837644316,0.7238338927718538,-1.5905685000031538,-2.9959533782977252,70.26157946855409,47.6300325306464
0.0425,-0.31912200234046284,5.28291691075818,0.41334589109662695,0.7158186049975416,-1.59701664333427,-2.9773803033988395,71.36630032059689,47.634203943719
0.045,-0.31734247763499723,5.278916688530468,0.4059256088223727,0.7078230645128376,-1.6031510729269012,-2.9588533543333537,71.06330864983741,47.637157749513015
0.0475,-0.3155827405566822,5.27490111813474,0.39855158603439816,0.6999883219868932,-1.6092954159293673,-2.940372694791061,72.0976172738843,47.64032147602325
0.05,-0.3138425522880052,5.270870558126109,0.3912237072161542,0.6921842380893387,-1.6151429040875658,-2.9219381590349927,71.869536620534,47.64239767474857
0.0525,-0.3121216828678778,5.266825385586532,0.3839418568909611,0.6845330805226926,-1.6209856687396487,-2.9035498807798548,72.84347879346144,47.644624871742124
0.055,-0.31041989148692756,5.26276595890593,0.3767059196052414,0.6769220026843522,-1.6265463644674487,-2.8852077079501064,72.68116951682833,47.645879103449516
0.0575,-0.30873694467054014,5.25869265260502,0.3695157799611783,0.6694572819381805,-1.6320895843242602,-2.866911747903031,73.60307380211479,47.64723796043387
0.06,-0.3070725995342609,5.254605824710934,0.36237132260348265,0.6620408319913949,-1.637363791882397,-2.8486618593643476,73.49892413067748,47.647725523518446
0.0625,-0.3054266192821795,5.2505058473763695,0.355272432248326,0.6547652408629184,-1.6426093484743058,-2.8304581263444537,74.37574945468391,47.64828157396281
0.065,-0.30379875890206415,5.246393078108731,0.34821899367298187,0.6475450876260854,-1.6475974953689188,-2.8123004160431897,74.32337014001106,47.64805719229625
0.0675,-0.3021887784425823,5.242267886850025,0.3412108917416295,0.6404611817857189,-1.6525471464525467,-2.794188791653133,75.16097453213827,47.64787355606732
0.07,-0.30059643073455755,5.238130630462651,0.33424801139734495,0.6334390214768585,-1.6572497585172494,-2.776123126944459,75.15496179018832,47.64699120405615
0.0725,-0.29902147281693375,5.23398167680717,0.3273302376852528,0.626549236295279,-1.661905160177856,-2.7581034664358604,75.95831182510415,47.64612877827227
0.075,-0.2974636553527402,5.229821382000523,0.32045745574644746,0.6197267772596693,-1.6663228420375518,-2.7401296889030107,75.99406187136051,47.6446415490432
0.0775,-0.2959227325013696,5.225650111928934,0.3136295508388772,0.6130334407859704,-1.6706855661106448,-2.7222018220240063,76.76739711335556,47.64315916003096
0.08,-0.29439845276161736,5.221468221883028,0.3068464083328574,0.6064123914645627,-1.6748189857638254,-2.704319748288656,76.84096001553544,47.64111916596766
0.0825,-0.29289056753150117,5.217276075864221,0.30010791372999956,0.5999177344791871,-1.6788905336640547,-2.6864834801151463,77.58792303104573,47.63907369161322
0.085,-0.291398823160601,5.213074028271535,0.2934139526600412,0.593499793828903,-1.6827404102424008,-2.668692902638355,77.69588676631172,47.63653198932633
0.08750000000000001,-0.28992296839444154,5.208862441297046,0.28676441089807647,0.5872059576541803,-1.6865222240137772,-2.6509480143902078,78.41962658388739,47.6339784586925
0.09,-0.28846274745761974,5.204641668395318,0.2801591743624774,0.5809928074351826,-1.6900893180114571,-2.6332487022635935,78.34615579724205,47.629820974320346
0.0925,-0.2870178882988129,5.200412006071947,0.2735981287951467,0.5749163878311118,-1.6936339475098043,-2.6155952203857686,78.82006075595204,47.623429725618195
0.095,-0.28558809618519276,5.196173673782391,0.2670811591219522,0.5689391738158832,-1.697025461760384,-2.5979879673963056,78.77653525893041,47.6144562775654
0.0975,-0.28417307984065626,5.191926897302385,0.2606081491730013,0.5630956306973715,-1.7003894803920827,-2.5804274212302403,79.23485162796143,47.60327544359296
0.1,-0.28277254630607535,5.187671895554775,0.2541789816931071,0.5573529197281757,-1.7036058444197424,-2.562913972225211,79.21891613750122,47.589585587544356
0.10250000000000001,-0.2813862057183263,5.183408893186997,0.24779353836553922,0.5517411362169905,-1.706790151738366,-2.5454480792493244,79.66352383219323,47.57371720989061
0.105,-0.28001376680786305,5.179138108565955,0.24145169982310785,0.5462315638457906,-1.709831813182666,-2.528030123834727,79.67306436959062,47.55540969143297
0.1075,-0.2786549410852572,5.174859765248321,0.23515334567088736,0.5408504531556386,-1.7128372792146975,-2.510660546612911,80.10561450145615,47.53495450037654
0.11,-0.2773094388942035,5.170574081020118,0.22889835449777665,0.5355727172640308,-1.7157047051996146,-2.4933397199216656,80.13874192453545,47.5121270844909
0.1125,-0.2759769730825444,5.166281278380009,0.2226866038982907,0.530421220565128,-1.7185321741974544,-2.4760680669088435,80.56069104360249,47.487184491260386
0.115,-0.2746572555395827,5.161981574512451,0.216517970484502,0.5253740742564181,-1.721225847995657,-2.4588459504060904,80.61570885229388,47.45993390490585
0.11750000000000001,-0.27335000041705443,5.157675190886899,0.21039232990698137,0.5204511583684469,-1.7238761415376032,-2.4416737767647065,81.0283470437563,47.43060199277811
0.12,-0.27205492109006635,5.153362344069046,0.20430955686703917,0.5156334035835449,-1.726396559837923,-2.424551899064278,81.10372479106074,47.39902387528471
0.1225,-0.2707717329840191,5.1490432545246545,0.198269525136885,0.5109380585697103,-1.7288704794034802,-2.4074807074901323,81.50819884015993,47.365399390199876
0.125,-0.26950015090710083,5.144718138186321,0.19227210757209898,0.5063485403168425,-1.7312181500653696,-2.3904605451804573,81.60255006126167,47.32958825031603
0.1275,-0.2682398915313341,5.14038721453889,0.18631717613107035,0.5018797770327535,-1.733516479187507,-2.373491786736417,81.99988264483734,47.29176659150253
0.13,-0.26699067105170826,5.1360506988699,0.18040460188763857,0.4975173781421988,-1.7356919193899296,-2.356574765214278,82.11194644308263,47.25181577015971
0.1325,-0.26575220736300276,5.1317088097037304,0.17453425504986314,0.49327422577903723,-1.7378154254650533,-2.3397098401705,82.50305210802041,47.20989098112185
0.135,-0.2645242180066185,5.127361761672858,0.16870600497278226,0.48913786211070626,-1.7398191601757336,-2.322897334481205,82.63167771193858,47.16589261914913
0.1375,-0.2633064220793629,5.1230097723597,0.16291972017655948,0.4851193657614384,-1.7417685959958735,-2.3061375931606216,83.01737624654777,47.11995737926628
0.14,-0.26209853843406894,5.1186530557332945,0.15717526835931453,0.4812079818062169,-1.7436011567013525,-2.289430928843281,83.16150998936838,47.07200238942274
0.14250000000000002,-0.2609002873519133,5.11429182845093,0.1514725164146868,0.4774132000755386,-1.745377261760245,-2.2727776724711766,83.54253767255334,47.02214800633089
0.145,-0.25971138896717083,5.1099263038111795,0.1458113304446988,0.4737257649017364,-1.7470391854087173,-2.2561781264078817,83.7012119541022,46.97032604913103
0.1475,-0.25853156473071676,5.105556697561604,0.14019157577677183,0.4701537675743702,-1.7486426870232519,-2.239632607964495,84.01536192579763,46.91668158766079
0.15,-0.25736053332499853,5.101183202873606,0.13461311698786713,0.46669142247177586,-1.7501500745563257,-2.2231414002124548,83.96895227453408,46.86131527071192
0.1525,-0.256198005755318,5.096805947436571,0.12907581797717352,0.46335053455844133,-1.7516514154153608,-2.2067047623083553,84.25581301088027,46.80437938073773
0.155,-0.25504369290032697,5.092425048656501,0.12357954204070049,0.46011956436628904,-1.7530648830869355,-2.190322917654228,84.22811875718558,46.74578002490879
0.1575,-0.2538973081937061,5.088040627746836,0.11812415188959911,0.4570078553034124,-1.754469243904664,-2.173996110725823,84.50760300950908,46.68563300553028
0.16,-0.2527585658696123,5.083652801844174,0.11270950965798247,0.4540055683942275,-1.7557890076487337,-2.1577245586893667,84.49737659919325,46.623861245563624
0.1625,-0.25162718256361327,5.0792616915828885,0.10733547691552159,0.45112048357566525,-1.7570968514327743,-2.1415084959249686,84.77030766546173,46.56056456877268
0.165,-0.250502875786063,5.074867413819938,0.10200191467545128,0.448344252426892,-1.7583231352359074,-2.1253481332114883,84.77639620272537,46.49568060602807
0.1675,-0.24938536531129876,5.070470088624966,0.09670868340675158,0.445683287112724,-1.759534913644542,-2.1092436951680327,85.04352010918277,46.429295170374
0.17,-0.24827437185257173,5.066069832566136,0.09145564304229972,0.44313054344055886,-1.7606679487063113,-2.0931953860663493,85.06485652459338,46.36135873008258
0.17250000000000001,-0.24716961826419678,5.0616667651615685,0.08624265299066526,0.4406912393535888,-1.7617841029328831,-2.077203421076209,85.32684945607201,46.29194483289928
0.17500000000000002,-0.24607082839462613,5.057261002682408,0.08106957214437326,0.4383594695757266,-1.7628241269361362,-2.0612679978708432,85.36244474585241,46.22101512526554
0.1775,-0.2449777281234765,5.052852664107451,0.07593625889133823,0.43613941165998926,-1.7638450884964187,-2.045389322461931,85.61991956130984,46.148632437048136
0.18,-0.24389004437193942,5.048441865403424,0.07084257112320731,0.43402615265924693,-1.7647923449689007,-2.0295675858580484,85.66885592830134,46.074768121875735
0.1825,-0.24280750599417095,5.0440287250210964,0.06578836624645537,0.43202296599594464,-1.7657185364070669,-2.0138029851858366,85.9223679094037,45.999475662719604
0.185,-0.24172984292653452,5.0396133586160925,0.06077350119078039,0.4301258011602794,-1.766573274159366,-1.9980957047456005,85.98379266726135,45.92273481727563
0.1875,-0.2406567869506808,5.035195884121643,0.055797832419879706,0.4283371480359783,-1.7674051096851715,-1.9824459330357762,86.23384462050865,45.844590935288046
0.19,-0.23958807096515863,5.030776416876225,0.05086121593987275,0.4266537035533909,-1.768167582312704,-1.9668538476248565,86.3069647476138,45.765031025152695
0.1925,-0.23852342963559797,5.026355074305276,0.0459635073097763,0.42507728067498524,-1.768905468380074,-1.9513196286254155,86.55401155818798,45.68409337674592
0.195,-0.23746259877403714,5.021931971424652,0.041104561649932536,0.4236052220643101,-1.769575933819136,-1.9358434468684789,86.63808880808682,45.60177122942227
0.1975,-0.23640531588991867,5.017507225161077,0.036284233652199134,0.42223875791513055,-1.7702202696544442,-1.9204254743101443,86.88254152599562,45.51809676139844
0.2,-0.23535131966409528,5.013080950202813,0.03150237758836302,0.4209757867758374,-1.7707989897841598,-1.9050658750542342,86.97688801778501,45.43306854248039
0.2025,-0.23430035041283098,5.00865326298633,0.026758847320059648,0.41981703910728463,-1.7713501678708505,-1.8897648131181537,87.21911754202524,45.346713475820096
0.20500000000000002,-0.2332521496448874,5.004224277867792,0.0220534963071549,0.4187608900732295,-1.7718374081543637,-1.8745224459029382,87.31255608634042,45.25903549370716
0.20750000000000002,-0.23220646038192533,4.9997941075109695,0.01738617761764446,0.41780769542143414,-1.7722984464401097,-1.8593389295042722,87.3959647602189,45.170069747954514
0.21,-0.23116302609990527,4.995362813636034,0.012756743939911051,0.41695676366421,-1.772736308224551,-1.8442144115204302,87.44051537478241,45.07983242120636
0.2125,-0.2301215919470327,4.990930441411579,0.008165047598473783,0.4162074430369179,-1.773161207823832,-1.8291490354457693,87.52602896173883,44.988335850066036
0.215,-0.22908190503407125,4.986497035430583,0.003610940563126431,0.41555883065744204,-1.7735633953974794,-1.8141429415675552,87.57579676500637,44.895589742582345
0.2175,-0.2280437145031387,4.9820626406979684,-0.0009057255438125987,0.4150101896814191,-1.773952287386173,-1.7991962675799136,87.6633786851366,44.80160537326587
0.22,-0.2270067714345557,4.977627301682402,-0.005385099440574155,0.41456072031875707,-1.7743189001569823,-1.7843091482293711,87.71807923489683,44.706393279301516
0.2225,-0.22597082890043557,4.973191063227116,-0.009827330178791206,0.4142096156839562,-1.7746719140244114,-1.7694817154922657,87.80768804809087,44.609963825183335
0.225,-0.22493564188743462,4.968753969675443,-0.014232567136631912,0.4139561636212501,-1.7750030522163842,-1.7547140986215697,87.86705154162084,44.51232822294194
0.2275,-0.2239009673372126,4.964316065710759,-0.018600960011755582,0.4137995003131074,-1.775320315983813,-1.7400064239584576,87.9586414810448,44.413496059840185
0.23,-0.22286656408302744,4.959877395550111,-0.02293265881451069,0.4137389876817026,-1.7756160805793666,-1.7253588153141586,88.02241176121844,44.313479087659026
0.2325,-0.22183219287890107,4.955438003718717,-0.027227813860994175,0.41377371637500493,-1.7758977209109985,-1.7107713934775002,88.1159332221497,44.21228623210637
0.23500000000000001,-0.22079761634823605,4.950997934306454,-0.031486575766319566,0.41390311052727125,-1.7761582135985834,-1.6962442768739145,88.18386686225105,44.109929666688345
0.23750000000000002,-0.21976259900330516,4.9465572316819415,-0.035709095437779885,0.41412622513311237,-1.776404355905498,-1.6817775808228883,88.27926685088688,44.00641775607933
0.24,-0.21872690720427693,4.94211593980707,-0.03989552406819042,0.41444253617463117,-1.7766296790318177,-1.6673714184236839,88.35113231109132,43.90176299265066
0.2425,-0.21769030917045454,4.937674102895301,-0.04404601312915553,0.4148510715325581,-1.7768404475692436,-1.6530258996096308,88.44835485735625,43.79597326715871
0.245,-0.21665257494828452,4.933231764779766,-0.0481607143644901,0.4153513500050295,-1.7770307040955202,-1.638741132216716,88.52393170671361,43.689061301438855
0.2475,-0.21561347641559803,4.928788969520099,-0.052239779783590456,0.41594237971302095,-1.7772062220537794,-1.6245172208754513,88.62291824435643,43.58103458760343
0.25,-0.2145727872573443,4.924345760819958,-0.056283361654938115,0.41662371441986273,-1.7773615155156004,-1.6103542682243281,88.70199644280638,43.47190599948188
0.2525,-0.21353028296393384,4.919902182586368,-0.06029161249957495,0.4173943487952714,-1.7775019051050525,-1.5962523736745087,88.80268615982246,43.36168269537272
0.255,-0.21248574081358754,4.915458278392845,-0.06426468508469244,0.41825386476244664,-1.777622339575378,-1.5822116347353035,88.8850653952963,43.25037763419401
0.2575,-0.2114389398657443,4.911014091994925,-0.06820273241721117,0.4192012489274883,-1.7777277221056575,-1.5682321456820858,88.98739555720466,43.13799769606514
0.26,-0.21038966094904982,4.906569666835357,-0.07210590773745834,0.4202361054926063,-1.7778134021606418,-1.5543139989655121,89.07288463353696,43.02455586742989
0.2625,-0.20933768665066965,4.902125046519216,-0.07597436451285175,0.42135741757839357,-1.7778838981144442,-1.5404572838087827,89.17679088170493,42.91005879778119
0.265,-0.20828280130905985,4.897680274357896,-0.0798082564316678,0.42256480660159795,-1.7779349288017583,-1.526662087676343,89.20130404992972,42.794605852880046
0.2675,-0.20722479261657067,4.893235373911135,-0.08360773737192781,0.42385595293179046,-1.7779865704190174,-1.5129284749094145,89.23226999347253,42.67828682192857
0.27,-0.20616345206872627,4.888790345331632,-0.08737296134642325,0.42523014710584445,-1.7780374779173957,-1.4992564889917894,89.25904782655259,42.56110965128772
0.2725,-0.20509857320230707,4.884345188830122,-0.091104082474227,0.4266864639606386,-1.7780889492499414,-1.4856461714655684,89.29185102935863,42.44307996164654
0.275,-0.204029951583198,4.879899904562699,-0.09480125497651547,0.42822420692273244,-1.7781397308662161,-1.4720975624720956,89.32081361905303,42.324205594985514
0.2775,-0.20295738478946027,4.875454492757787,-0.09846463317243097,0.42984246135416215,-1.7781910178284874,-1.458610700243554,89.3553458934153,42.20449212752355
0.28,-0.201880672402084,4.871008953593997,-0.10209437147496792,0.4315405409440006,-1.7782416555686003,-1.445185621630011,89.38635491990361,42.083947354480685
0.28250000000000003,-0.20079961598785437,4.866563287317116,-0.10569062438688231,0.4333175420419607,-1.7782927443330296,-1.4318223615914947,89.4225106811907,41.96257681292763
0.28500000000000003,-0.19971401909125064,4.862117494127546,-0.10925354649662355,0.4351727873993704,-1.778343220784646,-1.4185209537232357,89.45543288492178,41.84038823996473
0.28750000000000003,-0.1986236872172231,4.857671574288087,-0.11278329247429258,0.4371053846940719,-1.7783940977992772,-1.4052814297520722,89.4931091211449,41.71738713766192
0.29,-0.19752842782406627,4.853225528020217,-0.1162800170676211,0.4391146647043943,-1.7784443961243184,-1.392103820056309,89.52781607789927,41.593581175348206
0.2925,-0.19642805030620492,4.8487793556033845,-0.1197438750979798,0.4411997466724581,-1.7784950481286679,-1.3789881531696335,89.5669123204988,41.46897582323968
0.295,-0.1953223659878899,4.84433305727943,-0.12317502145640655,0.4433599685140907,-1.778545152055871,-1.3659344562926372,89.60328023259659,41.34357867475211
0.2975,-0.19421118810607468,4.839886633344067,-0.12657361109966583,0.445594461183187,-1.7785955660950832,-1.3529427548068464,89.64369852813144,41.21739517054724
0.3,-0.19309433180480104,4.835440084058802,-0.12993979904632746,0.4479025689722023,-1.7786454599125765,-1.3400130727754944,89.68160803061558,41.0904328213193
0.3025,-0.191971614118233,4.830993409735212,-0.13327374037287829,0.45028343461941894,-1.7786956233499698,-1.3271454324697691,89.72325291340186,40.962697039761856
0.305,-0.190842853965616,4.82654661065378,-0.1365755902098525,0.45273640814647476,-1.7787452918978153,-1.3143398548568963,89.76258889405015,40.834195248216446
0.3075,-0.18970787213452284,4.822099687141534,-0.13984550373799662,0.4552606440858571,-1.7787951924258851,-1.3015963591402693,89.80536735949144,40.70493283239905
