t,x,y,ang,vx,vy,omega,thrust,torque
0.0,1.1636084383781886,2.791932788118361,-5.832977553127524,-0.40194202783276034,-0.03673736993360088,-1.5405534760572297,109.83191183490688,15.745961859065819
0.0025,1.1625893214194554,2.791841298531356,-5.836819514393105,-0.41333332113604376,-0.03644673974865855,-1.5330187241893163,110.013636699744,15.777951976291202
0.005,1.161541838244463,2.791750643185356,-5.8406426534470315,-0.42463504204351266,-0.036070080422816855,-1.5254957017708006,110.19338692807946,15.810724273301961
0.0075,1.1604662129329284,2.7916610359157104,-5.844446999350302,-0.43584707257949157,-0.03560838136905264,-1.5179841987905645,110.37116251991326,15.844278750098102
0.01,1.159362669847129,2.7915726880854694,-5.848232580639552,-0.4469693046612593,-0.035062631005975016,-1.5104840057699185,110.5469634752454,15.87861540667962
0.0125,1.158231433607255,2.791485808587968,-5.851999425328386,-0.458001640032676,-0.03443381668293907,-1.502994913761253,110.72078979407591,15.913734243046516
0.015,1.1570727290669247,2.7914006038495875,-5.855747560908702,-0.46894399019759353,-0.03372292460643871,-1.495516714346691,110.89264147640475,15.94963525919879
0.0175,1.1558867812888691,2.7913172778327064,-5.859477014352012,-0.4797962763530597,-0.03293093976776838,-1.4880491996367449,111.06251852223193,15.986318455136445
0.02,1.1546738155207825,2.7912360320388254,-5.863187812110767,-0.49055842932232846,-0.0320588458719433,-1.480592162268978,111.23042093155746,16.02378383085948
0.0225,1.1534340571713406,2.791157065511871,-5.866879980119665,-0.5012303894876863,-0.031107625267867978,-1.4731453954066673,111.39634870438132,16.06203138636789
0.025,1.1521677317863874,2.791080574841673,-5.870553543796972,-0.5118121067231061,-0.030078258879742872,-1.4657086927374712,111.56030184070354,16.10106112166168
0.0275,1.1508750650252901,2.7910067541676082,-5.874208528045824,-0.5223035403267381,-0.0289717261396989,-1.4582818484720996,111.72228034052411,16.14087303674085
0.03,1.1495562826374637,2.7909357951824156,-5.8778449572555385,-0.5327046589532495,-0.02778900492164982,-1.4508646573429886,111.882284203843,16.181467131605398
0.0325,1.148211610439064,2.7908678871361725,-5.881462855302913,-0.5430154405460205,-0.02653107147635237,-1.4434569146029768,112.04031343066028,16.222843406255326
0.035,1.1468412742898513,2.790803216840432,-5.885062245553527,-0.5532358722692087,-0.025198900367664152,-1.4360584160239867,112.19636802097585,16.26500186069063
0.0375,1.145445500070223,2.7907419686725192,-5.888643150863039,-0.5633659504396898,-0.023793464409989373,-1.4286689578957084,112.35044797478982,16.307942494911313
0.04,1.144024513658418,2.7906843245799804,-5.892205593578473,-0.5734056804588847,-0.02231573460690242,-1.4212883370242873,112.50255329210208,16.351665308917376
0.0425,1.1425785409078888,2.790630464085188,-5.8957495955395185,-0.5833550767444806,-0.020766680090939658,-1.413916350731014,112.65268397291271,16.396170302708818
0.045,1.1411078076248489,2.7905805642900887,-5.899275178079807,-0.5932141626620573,-0.019147268064549354,-1.4065527968510192,112.8008400172217,16.44145747628564
0.0475,1.1396125395459864,2.7905347998811054,-5.9027823620282,-0.6029829704566245,-0.017458463742190334,-1.3991974737319703,112.94702142502902,16.487526829647834
0.05,1.1380929623163525,2.7904933431341745,-5.906271167710066,-0.6126615411840806,-0.015701230293569506,-1.3918501802327723,113.09122819633468,16.534378362795415
0.0525,1.1365493014674197,2.7904563639199296,-5.90974161494856,-0.6222499246425991,-0.01387652878800868,-1.3845107157222716,113.23346033113867,16.582012075728368
0.055,1.1349817823953117,2.79042402970902,-5.913193723065895,-0.631748179303953,-0.011985318139931214,-1.3771788800779632,113.37371782944102,16.630427968446703
0.0575,1.1333906303392058,2.7903965055775655,-5.916627510884612,-0.6411563722447823,-0.01002855505545892,-1.3698544736847011,113.51200069124174,16.679626040950417
0.06,1.1317760703599067,2.790373954212742,-5.9200429967288475,-0.6504745790778137,-0.008007193980109895,-1.3625372974334125,113.64830891654076,16.72960629323951
0.0625,1.1301383273185919,2.790356535918497,-5.923440198425595,-0.6597028838830392,-0.005922187047587894,-1.3552271527198134,113.78264250533815,16.78036872531398
0.065,1.12847762585573,2.7903444086213933,-5.926819133305969,-0.6688413791388609,-0.0037744840296539245,-1.347923841443131,113.91500145763388,16.83191333717383
0.0675,1.126794190370171,2.7903377278765733,-5.930179818206458,-0.6778901656532088,-0.0015650322870709235,-1.340627166004825,114.04538577342795,16.88424012881906
0.07,1.125088244998408,2.7903366468738486,-5.933522269470182,-0.6868493524946383,0.0007052232783877205,-1.3333369293073158,114.17379545272037,16.937349100249666
0.0725,1.1233600135940127,2.790341316443905,-5.936846502948143,-0.6957190569234136,0.003035340270874849,-1.3260529347527137,114.30023049551112,16.99124025146565
0.075,1.1216097197072414,2.790351885064626,-5.940152534000468,-0.7044994043225841,0.005424378846360436,-1.3187749862415525,114.42469090180023,17.045913582467016
0.0775,1.1198375865648151,2.790368498867526,-5.943440377497661,-0.7131905281290591,0.007871401757485689,-1.3115028881715256,114.54717667158769,17.10136909325376
0.08,1.1180438370498704,2.7903913016443007,-5.946710047821838,-0.7217925697646876,0.010375474397389218,-1.3042364454362254,114.66768780487348,17.15760678382588
0.0825,1.1162286936820836,2.7904204348534787,-5.949961558867969,-0.7303056785673482,0.012935664842514101,-1.2969754634238868,114.78622430165763,17.214626654183384
0.085,1.1143923785979666,2.7904560376271843,-5.95319492404511,-0.7387300117220547,0.015551043894404624,-1.2897197480161324,114.90278616194011,17.27242870432626
0.08750000000000001,1.1125351135313355,2.7904982467779997,-5.956410156277637,-0.7470657341920843,0.01822068512050134,-1.282469105586722,115.01737338572093,17.331012934254517
0.09,1.110657119793951,2.790547196805931,-5.959607268006475,-0.7553130186501321,0.02094366489394307,-1.2752233430003046,115.12998597300009,17.390379343968153
0.0925,1.1087586182563305,2.7906030199054705,-5.962786271190322,-0.7634720454094969,0.023719062432384454,-1.2679822676111745,115.2406239237776,17.450527933467168
0.095,1.1068398293287331,2.7906658459727556,-5.965947177306874,-0.771543002355305,0.026545959835837477,-1.2607456872620295,115.34928723805348,17.51145870275157
0.0975,1.104900972942316,2.79073580261282,-5.9690899973540406,-0.7795260848757756,0.029423442123545376,-1.2535134102827326,115.45597591582771,17.573171651821337
0.1,1.1029422685304622,2.7908130151469384,-5.972214741851166,-0.7874214957935315,0.032350597269897315,-1.2462852454890772,115.56068995710024,17.635666780676488
0.10250000000000001,1.1009639350102804,2.790897606620057,-5.975321420840239,-0.7952294452969622,0.03532651623939209,-1.2390610021815547,115.66342936187115,17.698944089317017
0.105,1.0989661907642772,2.790989697808312,-5.978410043887104,-0.8029501508716415,0.0383502930206591,-1.2318404901441262,115.7641941301404,17.76300357774293
0.1075,1.0969492536221983,2.791089407226632,-5.981480620082669,-0.8105838372318046,0.04142102465954463,-1.2246235196429966,115.86298426190797,17.827845245954215
0.11,1.0949133408430443,2.791196851136419,-5.984533158044108,-0.818130736251889,0.04453781129127167,-1.217409901425392,115.9597997571739,17.89346909395088
0.1125,1.0928586690972544,2.7913121435533133,-5.987567665916065,-0.825591086898143,0.04769975617168118,-1.2101994467183401,116.0546406159382,17.959875121732928
0.115,1.0907854544490625,2.7914353962550327,-5.990584151371848,-0.8329651351603048,0.05090596570756272,-1.2029919672274534,116.1475068382008,18.02706332930035
0.11750000000000001,1.0886939123390245,2.7915667187892863,-5.9935826216146255,-0.8402531339833574,0.054155549486082394,-1.195787275135717,116.23839842396175,18.09503371665315
0.12,1.0865842575667146,2.7917062184817616,-5.996563083378622,-0.8474553431993616,0.05744762030331591,-1.1885851831022773,116.32731537322107,18.16378628379133
0.1225,1.0844567042735935,2.791854000444181,-5.999525542930302,-0.8545720294593704,0.06078129419189442,-1.1813855042612351,116.41426535227087,18.233290491172166
0.125,1.0823114659253776,2.7920101675847264,-6.002470006078359,-0.8616034666986943,0.06415569228741477,-1.1741880592590912,116.4997033979416,18.30173364806388
0.1275,1.0801487552553606,2.792174820755149,-6.005396478706122,-0.8685499668499039,0.06757004830268876,-1.1669930869798093,116.58389606201786,18.368053915254208
0.13,1.0779687841872712,2.7923480589759,-6.008304967599413,-0.8754118655843981,0.07102366348247487,-1.1598010704307937,116.66684334449967,18.432251292743146
0.1325,1.0757717637995308,2.7925299795250003,-6.0111954807500405,-0.8821895034624847,0.07451584263782239,-1.1526124913949078,116.74854524538702,18.494325780530694
0.135,1.0735579043131525,2.79272067794698,-6.014068027352744,-0.8888832258369986,0.07804589416724353,-1.145427830433579,116.82900176467999,18.55427737861686
0.1375,1.0713274150798793,2.792920248061875,-6.016922617802142,-0.8954933827569564,0.08161313007665588,-1.1382475668898946,116.90821290237847,18.612106087001628
0.14,1.0690805045705647,2.793128781974268,-6.01975926368969,-0.9020203288712644,0.08521686599810953,-1.131072178891691,116.98617865848252,18.667811905685014
0.14250000000000002,1.066817380363793,2.793346370082375,-6.02257797780065,-0.9084644233324972,0.08885642120731294,-1.123902143354635,117.06289903299214,18.72139483466701
0.145,1.0645382491347402,2.793573101087177,-6.02537877411106,-0.914826029700765,0.09253111863997228,-1.1167379359852962,117.1383740259073,18.77285487394762
0.1475,1.0622433166442755,2.793809062001588,-6.0281616677847145,-0.9211055158476831,0.09624028490695878,-1.109580031284213,117.212603637228,18.822192023526835
0.15,1.059932787728303,2.7940543381596594,-6.030926675170157,-0.927303253860463,0.09998325030831895,-1.1024289025489498,117.28558786695427,18.869406283404665
0.1525,1.0576068662873408,2.7943090132258224,-6.033673813797674,-0.9334196199461385,0.10375934884614273,-1.095285021877147,117.35732671508607,18.9144976535811
0.155,1.055265755276343,2.7945731692041553,-6.0364031023762985,-0.9394549943359434,0.10756791823630463,-1.0881488601695632,117.42782018162346,18.95746613405615
0.1575,1.0529096566947571,2.794846886447682,-6.039114560790824,-0.9454097611898556,0.11140829991909322,-1.0810208871331093,117.4970682665664,18.99831172482982
0.16,1.0505387715768224,2.7951302436676966,-6.041808210098821,-0.9512843085013234,0.11527983906874428,-1.0739015712838753,117.5650709699149,19.037034425902092
0.1625,1.0481532999821044,2.7954233179431065,-6.044484072527664,-0.9570790280021866,0.1191818846018932,-1.0667913799501494,117.63182829166894,19.073634237272977
0.165,1.0457534409862677,2.7957261847298,-6.0471421714715685,-0.9627943150678093,0.12311378918496234,-1.0596907792754293,117.69734023182855,19.10811115894247
0.1675,1.0433393926720858,2.7960389178700282,-6.04978253148863,-0.968430568622437,0.12707490924049897,-1.0526002342214262,117.76160679039371,19.140465190910582
0.17,1.0409113521206868,2.7963615896018013,-6.0524051782978745,-0.9739881910447908,0.13106460495247968,-1.0455202085710604,117.82462796736442,19.170696333177304
0.17250000000000001,1.0384695154030348,2.7966942705682984,-6.055010138776314,-0.9794675880739147,0.13508224027059734,-1.03845116493145,117.88640376274068,19.198804585742632
0.17500000000000002,1.0360140775716469,2.797037029827287,-6.0575974409560125,-0.9848691687152866,0.13912718291354645,-1.0313935647368924,117.94693417652252,19.224789948606574
0.1775,1.0335452326525436,2.797389934860546,-6.060167114021157,-0.9901933451472082,0.143198804371323,-1.0243478682518365,118.00621920870991,19.24865242176913
0.18,1.0310631736374345,2.797753051583299,-6.0627191883051355,-0.9954405326274836,0.14729647990655523,-1.01731453457385,118.06425885930285,19.270392005230295
0.1825,1.0285680924761347,2.798126444353644,-6.065253695287625,-1.0006111494004017,0.1514195885548812,-1.0102940216365763,118.12105312830136,19.290008698990075
0.185,1.0260601800692153,2.798510175981986,-6.067770667591685,-1.0057056166040335,0.15556751312438966,-1.0032867862126869,118.17660201570538,19.307502503048457
0.1875,1.0235396262608842,2.7989043077404676,-6.070270138980859,-1.0107243581778542,0.15973964019414066,-0.9962932839168229,118.23090552151501,19.322873417405457
0.19,1.021006619832098,2.7993088993723916,-6.072752144356279,-1.0156678007707054,0.16393536011178197,-0.9893139692085327,118.28396364573018,19.33612144206107
0.1925,1.0184613484939027,2.7997240091016407,-6.075216719753791,-1.0205363736491047,0.1681540669902779,-0.982349295395199,118.33577638835088,19.34724657701529
0.195,1.0159039988810044,2.8001496936420835,-6.077663902341068,-1.0253305086059157,0.17239515870376707,-0.9753997146349607,118.38634374937718,19.356248822268128
0.1975,1.013334756545567,2.800586008206974,-6.080093730414745,-1.0300506398693898,0.17665803688256523,-0.9684656779396261,118.43566572880903,19.363128177819576
0.2,1.010753805951237,2.8010330065183315,-6.082506243397559,-1.0346972040125884,0.18094210690733017,-0.9615476351775795,118.48374232664638,19.367884643669626
0.2025,1.0081613304673942,2.8014907408163117,-6.084901481835491,-1.039270639863196,0.18524677790240449,-0.9546460350766794,118.53057354288933,19.370518219818294
0.20500000000000002,1.0055575123636273,2.8019592618685545,-6.087279487394916,-1.0437713884137358,0.18957146272835337,-0.9477613252271508,118.57623604827909,19.371207968130403
0.20750000000000002,1.0029425327997907,2.80243861900301,-6.089640302808161,-1.0481998964392394,0.19391559676730052,-0.9408939108149028,118.62107507855555,19.370760174737516
0.21,1.0003165717958102,2.8029288602465834,-6.091983971586845,-1.0525566290600725,0.19827870378572218,-0.9340440101685307,118.66513252000298,19.369272663608182
0.2125,0.9976798082048635,2.8034300324530927,-6.0943105377595215,-1.0568420545420465,0.20266032154271943,-0.9272118185169802,118.70840837262142,19.366745434742384
0.215,0.9950324197081587,2.803942181325382,-6.096620045842198,-1.0610566421863914,0.2070599914950806,-0.9203975305942445,118.75090263641086,19.363178488140147
0.2175,0.9923745828124191,2.80446535142454,-6.098912540837101,-1.0652008622722413,0.21147725877718745,-0.9136013406406186,118.7926153113713,19.358571823801448
0.22,0.9897064728475089,2.804999586179068,-6.101188068231439,-1.0692751859995409,0.21591167218057095,-0.9068234424039516,118.83354639750276,19.352925441726303
0.2225,0.9870282639642026,2.805544927893997,-6.103446673996178,-1.0732800854323732,0.22036278413312638,-0.9000640291408948,118.87369589480521,19.346239341914703
0.225,0.9843401291320948,2.8061014177599533,-6.1056884045848125,-1.0772160334427112,0.22483015067799794,-0.8933232936181468,118.91306380327866,19.338513524366654
0.2275,0.9816422401376504,2.8066690958621683,-6.107913306932143,-1.081083503654591,0.22931333145214258,-0.8866014281136961,118.9516501229231,19.329747989082144
0.23,0.9789347675823942,2.807248001189437,-6.110121428453054,-1.0848829703887104,0.23381188966458263,-0.87989862441806,118.98945485373855,19.31994273606119
0.2325,0.9762178808812371,2.80783817164302,-6.112312817041299,-1.0886149086074528,0.23832539207435716,-0.8732150738355201,119.026477995725,19.309097765303783
0.23500000000000001,0.9734917482609411,2.808439644045491,-6.114487521068286,-1.0922797938603361,0.24285340896818142,-0.8665509671853555,119.06271954888243,19.297213076809918
0.23750000000000002,0.970756536758719,2.809052454149528,-6.116645589381866,-1.095878102229888,0.24739551413782415,-0.859906494803072,119.0981795132109,19.284288670579606
0.24,0.9680124122209686,2.809676636646647,-6.118787071305126,-1.0994103102779471,0.25195128485721197,-0.8532818465416289,119.13285788871033,19.27032454661284
0.2425,0.9652595393021416,2.810312225175878,-6.120912016635181,-1.1028768949923926,0.25652030185927016,-0.8466772117726621,119.16675467538079,19.25532070490962
0.245,0.9624980814637445,2.8109592523323848,-6.123020475641978,-1.106278333734299,0.2611021493125094,-0.8400927793877047,119.19986987322224,19.239277145469952
0.2475,0.9597282009734712,2.811617749676022,-6.125112499067091,-1.1096151041855198,0.26569641479736755,-0.8335287377994036,119.23220348223467,19.22219386829383
0.25,0.9569500589044662,2.8122877477398376,-6.127188138122532,-1.112887684296697,0.27030268928231516,-0.8269852749427345,119.26375550241814,19.20407087338125
0.2525,0.9541638151347168,2.812969276038511,-6.129247444489551,-1.1160965522356996,0.27492056709973467,-0.8204625782762122,119.29452593377258,19.184908160732224
0.255,0.9513696283465748,2.8136623630767335,-6.131290470317452,-1.1192421863364876,0.2795496459215813,-0.8139608347830983,119.32451477629805,19.164705730346746
0.2575,0.9485676560264038,2.8143670363575257,-6.1333172682224015,-1.122325065048405,0.284189526734835,-0.8074802309726071,119.35372202999449,19.14346358222481
0.26,0.9457580544643546,2.8150833223904956,-6.135327891286252,-1.1253456668858974,0.28883981381675206,-0.8010209528811066,119.38214769486194,19.12118171636643
0.2625,0.9429409787542641,2.815811246700031,-6.137322393055355,-1.1283044703786589,0.29350011470992543,-0.7945831860733175,119.40979177090038,19.097860132771594
0.265,0.9401165827936795,2.8165508338334337,-6.139300827539385,-1.131201954022202,0.2981700401971617,-0.7881671156435089,119.43665425810983,19.073498831440304
0.2675,0.9372850192840049,2.8173021073689863,-6.141263249210166,-1.1340385962288562,0.3028492042761839,-0.7817729262166913,119.46273515649028,19.04809781237256
0.27,0.9344464397307701,2.8180650899239597,-6.143209713000498,-1.13681487527919,0.307537224134168,-0.7754008019498058,119.48803446604174,19.021657075568367
0.2725,0.9316009944440204,2.818839803162553,-6.145140274302992,-1.1395312692738586,0.3122337201221222,-0.7690509265329111,119.5125521867642,18.994176621027727
0.275,0.9287488325388259,2.8196262678037725,-6.1470549889689,-1.142188256085875,0.31693831572911624,-0.7627234831903671,119.53628831865764,18.965656448750625
0.2775,0.9258901019359099,2.8204245036292424,-6.148953913306955,-1.1447863133133038,0.32165063755636975,-0.7564186546820156,119.55924286172208,18.93609655873707
0.28,0.9230249493623952,2.821234529490955,-6.150837104082208,-1.1473259182323803,0.32637031529120747,-0.7501366233043578,119.58141581595754,18.905496950987068
0.28250000000000003,0.9201535203526665,2.8220563633189517,-6.152704618514876,-1.149807547751048,0.33109698168088897,-0.7438775708917291,119.602807181364,18.873857625500612
0.28500000000000003,0.9172759592493489,2.8228900221289397,-6.154556514279183,-1.1522316783629198,0.33583027250632136,-0.7376416788174709,119.62341696241856,18.841178586209548
0.28750000000000003,0.9143924092044007,2.823735522029846,-6.156392849502212,-1.1545987861017997,0.3405698265567717,-0.7314291279941929,119.6434260247432,18.807618671705907
0.29,0.9115030121732091,2.8245928782873513,-6.158213682716974,-1.1569093521700857,0.3453153304328004,-0.7252400622672722,119.6630116657175,18.773333586903764
0.2925,0.9086079089022764,2.8254621054422575,-6.160019072770758,-1.1591638624541156,0.3500665176195313,-0.7190745892310672,119.68217388534141,18.738323331803105
0.295,0.9057072389247298,2.8263432173726803,-6.161809078779501,-1.161362801763464,0.35482312447630515,-0.7129328162071582,119.70091268361494,18.70258790640394
0.2975,0.9028011405630509,2.8272362273011953,-6.163583760127102,-1.163506653800932,0.35958489020669776,-0.7068148502450396,119.71922806053809,18.66612731070626
0.3,0.8998897509318795,2.828141147801911,-6.165343176464744,-1.1655959011328894,0.3643515568285962,-0.7007207981228094,119.73712001611088,18.628941544710084
0.3025,0.8969732059408918,2.829057990807469,-6.167087387710218,-1.1676310251599686,0.3691228691443373,-0.6946507663478569,119.75458855033331,18.591030608415387
0.305,0.8940516402977506,2.829986767615966,-6.168816454047245,-1.169612506088106,0.3738985747109127,-0.6886048611575497,119.77163366320532,18.55239450182219
