t,x,y,ang,vx,vy,omega,thrust,torque
0.0,-2.7951096165751887,1.2034748062498748,0.379758465401642,1.273798326645454,1.7264790185870633,-3.6212168388532926,92.14144689948431,90.26193035374403
0.0025,-2.7919376991124936,1.2077844586014388,0.3707429190655054,1.263769936973267,1.7212566364025745,-3.591232915568813,97.411090625802,90.21318587295085
0.005,-2.788791187717825,1.2120826932838844,0.3618022234277203,1.253475204881531,1.717344920736915,-3.561336243258227,92.20943924179984,90.15261885160845
0.0075,-2.785669572867407,1.2163697298524034,0.35293615723000743,1.2438505923803111,1.712297301587093,-3.531529325537871,96.9911217315809,90.08971472503207
0.01,-2.782572277855052,1.2206456467300082,0.3441444956968538,1.234020858747408,1.7084491365075032,-3.501812473506123,92.28686727747743,90.01575500174783
0.0125,-2.779498800166328,1.2249106544495,0.3354270107631639,1.2247948190023725,1.7035692278398862,-3.4721880068807423,96.64190795709094,89.93894174565928
0.015,-2.7764485807502988,1.2291648387070195,0.3267834709358815,1.2154155826656148,1.6997902802521496,-3.442656349114811,92.37695207167846,89.85174482448046
0.0175,-2.7734211244461764,1.233408402417367,0.31821364149434345,1.2065825859276997,1.6950721253295709,-3.4132196581069847,96.35626665994764,89.76126648139929
0.02,-2.770415888298131,1.2376414373038582,0.30971728437697293,1.1976406394708845,1.6913670904914184,-3.3838784493844085,92.48191546362342,89.66099764258901
0.0225,-2.76743238468102,1.241864139776895,0.30129415835898,1.1891949685606906,1.6868056007408894,-3.3546347373563106,96.12819990072553,89.55709312993444
0.025,-2.7644700854205544,1.2460766065966495,0.2929440189598661,1.1806781938681348,1.6831784023457879,-3.32548911278261,92.6032397662856,89.44392534197418
0.0275,-2.7615285104955065,1.250279028559534,0.28466661860213205,1.1726140415730266,1.6787691827344104,-3.29644346195584,95.952639729917,89.3268294006898
0.03,-2.758607145394635,1.2544715066692387,0.27646170653620367,1.164511248035601,1.675223126983328,-3.267498436765661,92.74185832800777,89.20094166757826
0.0325,-2.7557055176899152,1.2586542268260013,0.2683290289830631,1.156822785438305,1.670962341081913,-3.2386558084038004,95.82525568173321,89.07088552498351
0.035,-2.752823125570998,1.2628272936365175,0.2602683290738689,1.1491235802547675,1.6675002361228248,-3.2099162779902377,92.89829648679368,88.93246156208697
0.0375,-2.749959504138356,1.2669908886883134,0.2522793469788581,1.141805004102901,1.663384501158487,-3.1812815127332836,95.74230770778763,88.78967338982864
0.04,-2.747114163447251,1.27114511966986,0.24436181985944408,1.1344996870094068,1.6600087502216703,-3.152752252875918,93.07277654454596,88.63890055064664
0.0425,-2.7442866460259476,1.2752901643342318,0.23651548198529987,1.1275452519283238,1.6560350549833776,-3.124330071215099,95.70053270952161,88.48360577550804
0.045,-2.7414764730642593,1.2794261330240382,0.22874006469711256,1.1206247287227247,1.6527477293787693,-3.0960157384819764,93.26529638124683,88.32067417221958
0.0475,-2.73868319439451,1.2835532000533458,0.2210352965134181,1.1140287684566332,1.6489133696659477,-3.067810741363405,95.69705620227717,88.15309568134688
0.05,-2.735906341696618,1.2876714780650522,0.21340090310250226,1.1074844791338858,1.6457162662587335,-3.0397158736658567,93.47568857794143,87.97819745662636
0.0525,-2.7331454719695434,1.291781138264138,0.20583660738028986,1.101241419853859,1.6420187938801774,-3.0117325432117736,95.72932298186109,87.7985557272635
0.055,-2.7304001268116544,1.2958822952983668,0.19834212949012767,1.0950652782148964,1.638913480535652,-2.9838615604939327,93.70366500747656,87.61188444541482
0.0575,-2.7276698702441107,1.2999751175414715,0.1909171868928208,1.089169646111755,1.6353506628275447,-2.956104260830802,95.79504230379223,87.42039762103697
0.06,-2.7249542532739044,1.3040597213971215,0.1835614943532284,1.0833539884715875,1.6323385144897762,-2.9284614658780534,93.94885051080217,87.22214775420792
0.0625,-2.7222528467976908,1.3081362726440324,0.17627476402337156,1.077800413258832,1.6289083020317832,-2.900934444061382,95.89214424836408,87.0190316830251
0.065,-2.7195652107743116,1.3122048892299285,0.1690567054349307,1.0723379544426772,1.6259905294863652,-2.873524023413959,94.21080832604832,86.80939817396047
0.0675,-2.7168909228302676,1.3162657345413327,0.161907025576214,1.0671211699629466,1.6226910302255302,-2.846231410440348,96.01874477781323,86.59486642145968
0.07,-2.714229551465425,1.3203189278879495,0.15482542888977358,1.0620049651985155,1.6198687031347143,-2.819057435399933,94.48905925566527,86.37404430849648
0.0725,-2.711580680893817,1.3243646304399546,0.14781161734391274,1.0571198080105773,1.6166981615279368,-2.7920032472975596,96.17311759731454,86.14830815254165
0.075,-2.708943887785651,1.328402962710981,0.1408652904347444,1.0523432196395588,1.6139722269753645,-2.765069675016125,94.78309606260618,85.91649224574519
0.0775,-2.7063187628050405,1.3324340838087725,0.13398614525282462,1.0477846262295751,1.6109290070674216,-2.7382578140054656,96.35367137519768,85.67976066043711
0.08,-2.7037048904571974,1.3364581153123394,0.12717387648906398,1.0433412943996956,1.6083003045800601,-2.711568488646777,95.09239422477515,85.43714526019595
0.0825,-2.7011018677246894,1.3404752144029481,0.12042817649699973,1.039104297487935,1.6053828761701634,-2.6850027443640205,96.55893120726542,85.18962489298445
0.085,-2.6985092866437386,1.3444855036023804,0.11374873530204485,1.034988114168458,1.602852149976144,-2.658561398329224,95.41641990871612,84.93640354422963
0.08750000000000001,-2.695926750390132,1.3484891382865434,0.1071352406598476,1.0310678384546614,1.6000590772094057,-2.6322454491054015,96.78752345766516,84.67829868950611
0.09,-2.6933538582550667,1.3524862418105315,0.10058737806842537,1.0272729242571528,1.5976269863274044,-2.6060557043149943,95.75463582317742,84.41466396613673
0.0925,-2.690790219488984,1.3564769678536346,0.09410483082300683,1.0236645818528451,1.5949569181910843,-2.579993118504384,97.03816329635868,84.14617653760023
0.095,-2.6882354403870963,1.3604614405057505,0.08768728003065145,1.020185265245876,1.5926240448187579,-2.5540584877296233,96.10650546138365,83.87231985278886
0.0975,-2.6856891361626705,1.3644398118478558,0.08133440466192321,1.0168841509715958,1.590075707135957,-2.5282527250815017,97.3096443976301,83.59364935618935
0.1,-2.683150919886556,1.3684122066153608,0.0750458815676429,1.0137149495605196,1.5878425637039306,-2.5025766133189578,96.47149612520114,83.309760795086
0.10250000000000001,-2.680620412629686,1.3723787753803285,0.06882138552770284,1.010716436234017,1.5854147523063846,-2.4770310263872295,97.6008303754499,83.02110430244265
0.105,-2.678097234030583,1.3763396434422435,0.06266058926963924,1.0078520398407818,1.5832817874843381,-2.451616732270786,96.84908103524833,82.7273724744516
0.1075,-2.675581010919174,1.3802949599459648,0.05656316351486281,1.0051515736440872,1.5809733623162463,-2.426334567856447,97.91064761891222,82.42892460047315
0.11,-2.673071369312194,1.3842448506803875,0.05052877699877394,1.0025868289715936,1.578940966194391,-2.40118528510154,97.23874076219322,82.1255365087881
0.1125,-2.6705679417061488,1.388189463438155,0.0445570965146535,1.0001799249570147,1.5767508461547806,-2.3761696857233283,98.2380792594095,81.81748938995601
0.115,-2.6680703603233247,1.3921289244288277,0.038647786935075,0.9979098216610901,1.5748193547739477,-2.3512885045986893,97.63996416043334,81.50463031643805
0.11750000000000001,-2.665578263240365,1.3960633801618747,0.032800511253673226,0.9957920594360786,1.5727465131488216,-2.3265425099876262,98.58216005564641,81.1871735930212
0.12,-2.6630912887277307,1.3999929572040122,0.027014930607635036,0.9938117174582514,1.570916212512896,-2.3019324188101824,98.05224894349877,80.86502699681724
0.1225,-2.6606090803614224,1.4039178008452584,0.02129070431753985,0.9919787370746844,1.5689596728828334,-2.277458967424051,98.94197202563473,80.5383477979531
0.125,-2.6581312823166097,1.4078380379506614,0.015627489910735412,0.9902833951125393,1.5672308025562025,-2.253122854072999,98.47510200735975,80.20709522649872
0.1275,-2.6556575435932146,1.4117538126497078,0.010024943159423148,0.9887308931758165,1.565389635091968,-2.2289247846270897,99.31664068928698,79.8713781583821
0.13,-2.6531875141403103,1.41566525205119,0.004482718104747169,0.987315898186301,1.5637623914603789,-2.2048654380734845,98.90803958204114,79.53119916962918
0.1325,-2.650720848311322,1.4195724991786065,-0.0009995329067212016,0.986039624192617,1.562035709539988,-2.1809454910842327,99.70533181257358,79.18662630678794
0.135,-2.648257201709946,1.423475681333773,-0.006422159198333236,0.984900421838395,1.5605102487943263,-2.157165602932722,99.34635746450033,78.83773191408045
0.1375,-2.645796233988232,1.4273749391635093,-0.01178551171868264,0.9838961651171784,1.5588961491450843,-2.133526414547272,99.74706046769559,78.48736818012776
0.14,-2.64333760782352,1.4312702876162458,-0.017089942194600933,0.9830269913767055,1.5573826100762136,-2.1100279078686177,99.19646027634825,78.13736705808434
0.14250000000000002,-2.6408809918322866,1.4351616799578837,-0.02233580177982757,0.9822876335968834,1.5557311798860618,-2.0866696426609836,99.56449844799442,77.78768725591692
0.145,-2.6384260584055927,1.4390490577599218,-0.027523440540809373,0.9816807485873167,1.5541708503503109,-2.0634511893215444,99.05585835919618,77.43836703346354
0.1475,-2.6359724852062243,1.4429323740759767,-0.03265320746032095,0.9811990739557791,1.5524819174066256,-2.0403721105186254,99.39383834047315,77.08934502594074
0.15,-2.633519953764351,1.446811571183725,-0.037725450446880665,0.9808471461491968,1.550875364440145,-2.01743198417244,98.9239096582059,76.74067835552387
0.1525,-2.6310681505931792,1.4506866019572264,-0.042740516338681936,0.9806160934983734,1.549148782616136,-1.9946303761079518,99.23422163247714,76.39228945927835
0.155,-2.6286167661428763,1.4545574093430498,-0.04769875091221211,0.9805119686415394,1.5474965435144885,-1.971966871127303,98.79999876117122,76.04425066530739
0.1575,-2.6261654955901363,1.4584239460658854,-0.052600498886434,0.9805246244619927,1.5457321907812234,-1.94944103841533,99.08483361619439,75.69647156234608
0.16,-2.6237140380980475,1.462286155706419,-0.05744610393069647,0.9806613157603183,1.5440347750662666,-1.9270524690867683,98.6835356086548,75.34903652488612
0.1625,-2.6212620973282164,1.4661439908677911,-0.06223590866911335,0.9809109076957852,1.5422325516337625,-1.9048007358466328,98.94490078402613,75.00184518023654
0.165,-2.6188093809606543,1.4699973957323755,-0.06697025468784486,0.9812815867771514,1.5404904428987058,-1.8826854356167892,98.57395430561998,74.65499122788145
0.1675,-2.616355600971097,1.4738463228073728,-0.07164948253962798,0.9817614775534955,1.538650269477127,-1.8607061447454676,98.81368844477736,74.30836681289021
0.17,-2.613900473370684,1.4776907168466145,-0.0762739317504991,0.9823594661515552,1.5368639271180564,-1.838862465512993,98.47071202938461,73.96207262410681
0.17250000000000001,-2.6114437182857633,1.4815305302849084,-0.08084394082443601,0.983063147913223,1.5349857432916796,-1.8171539780015862,98.69049853606367,73.6159954450266
0.17500000000000002,-2.6089850598821953,1.4853657084193717,-0.0853598472495844,0.98388191021502,1.533155604132358,-1.795580289451814,98.37328802769666,73.27024095732145
0.1775,-2.6065242262801895,1.4891962036340454,-0.08982198750297724,0.9848029992445559,1.5312393668400863,-1.7741409837428332,98.57466761223434,72.92469238884956
0.18,-2.6040609496325597,1.493021961743085,-0.09423069705632044,0.985836134851946,1.5293658466558493,-1.7528356727220118,98.28118270017849,72.57945871516222
0.1825,-2.6015949659029305,1.4968429350995995,-0.09858631038076025,0.986968366649911,1.5274115287727954,-1.7316639441044663,98.46556498998055,72.23442113861829
0.185,-2.5991260150712434,1.500659070010338,-0.10288916095227742,0.9882096041084273,1.5254950237186693,-1.7106254140306294,98.19391675616887,71.88969049039383
0.1875,-2.5966538407999566,1.504470318815645,-0.10713958125647723,0.9895468288126789,1.5235026127338087,-1.6897196740701201,98.36259103637293,71.54514723624622
0.19,-2.594178190743614,1.5082766282921019,-0.11133790279363578,0.9909900196652328,1.521543500681556,-1.6689463443778716,98.11103044194286,71.20090285268276
0.1925,-2.5916988161243775,1.512077950783908,-0.11548445608349131,0.9925261977899642,1.519512997466728,-1.6483050203790914,98.26517558612125,70.85683814715362
0.195,-2.5892154721255753,1.5158742335162878,-0.11957957066998107,0.9941653111161634,1.5175116392552748,-1.627795325995774,98.03208283056867,70.51306423016011
0.1975,-2.586727917395005,1.5196654288524774,-0.12362357512601563,0.995894509592394,1.515443056920991,-1.6074168604949943,98.17277647616213,70.1694631456568
0.2,-2.584235914505119,1.5234514844466214,-0.12761679705794074,0.9977236269973251,1.5133997975244726,-1.587169251345888,97.95665116813841,69.82614480009215
0.2025,-2.581739229399978,1.527232352694843,-0.1315595631102791,0.9996400154976833,1.5112931603581339,-1.5670521016311847,98.08487818733872,69.48299320922928
0.20500000000000002,-2.579237631907142,1.5310079816618503,-0.1354521989699473,1.0016533265168082,1.5092083299757268,-1.5470650421715455,97.88433027010618,69.1401163880263
0.20750000000000002,-2.5767308951419183,1.5347783237892714,-0.13929502937095223,1.0037511740484661,1.5070636724578614,-1.527207679828673,98.00099058389378,68.79740092101703
0.21,-2.574218796058132,1.5385433275352924,-0.14308837809838973,1.005942971937825,1.504937587529485,-1.5074796486005786,97.81473196239558,68.45495237482524
0.2125,-2.5717011148213422,1.5423029453985275,-0.14683256799308494,1.0082166436883662,1.502754953423733,-1.4878805590825437,97.92064774229986,68.11266038003437
0.215,-2.5691776353875353,1.5460571262147371,-0.15052792095539616,1.0105813215716002,1.50058791757562,-1.4684100482946505,97.74748456213008,67.7706276110418
0.2175,-2.5666481448552507,1.5498058225499514,-0.15417475794979008,1.0130252759934142,1.498367359088238,-1.4490677305131794,97.8434068618966,67.42874711850429
0.22,-2.56411243406286,1.553548983602701,-0.1577733990084717,1.0155573233392443,1.496159664012322,-1.4298532456416324,97.6822323932569,67.08711833812472
0.2225,-2.561570296928044,1.5572865620158953,-0.1613241632358873,1.0181661094587842,1.4939012410170336,-1.410766211578843,97.76884725050027,66.74563802584538
0.225,-2.5590215310557407,1.5610185073370495,-0.16482736881219842,1.0208601088645217,1.4916531672880446,-1.3918062709877013,97.6176665468878,66.40440383093996
0.2275,-2.5564659371220904,1.5647447719960657,-0.1682833329972125,1.0236283236746175,1.489356707916748,-1.3729730449311623,97.66357236183762,66.06337259988601
0.23,-2.5539033211246003,1.5684652957174678,-0.17169237211703325,1.0264775532915464,1.4870604007820254,-1.3542661653787553,97.50560950073597,65.72265032133743
0.2325,-2.551333492974848,1.572180016021024,-0.17505480154830735,1.0293978140367943,1.4847139743402824,-1.335685240805153,97.54395425749892,65.38214667145196
0.23500000000000001,-2.548756266241714,1.5758888680181866,-0.1783709357161423,1.0323962158328135,1.48236574325631,-1.31722990149517,97.39453458052762,65.04194303417873
0.23750000000000002,-2.546171457530402,1.5795917893914864,-0.18164108809907348,1.0354631705260757,1.4799694786807105,-1.2988997599138448,97.42579523694631,64.70195300463247
0.24,-2.5435788870432208,1.5832887156138589,-0.18486557123293093,1.038605434956883,1.4775696138867627,-1.2806944494230128,97.28414218047934,64.36225436425843
0.2425,-2.5409783779675696,1.5869795845361374,-0.1880446967156937,1.0418138204505227,1.4751236446255052,-1.2626135863872248,97.30875431575824,64.02276466524074
0.245,-2.5383697570273975,1.590664331982662,-0.19117877521123142,1.0450947276917462,1.4726724282257286,-1.244656807145931,97.17414744702751,63.683558054003576
0.2475,-2.5357528538832805,1.5943428959775365,-0.1942681164540449,1.0484393677791217,1.4701768917783389,-1.226823731871535,97.19250894121095,63.34455604123169
0.25,-2.5331275016716344,1.5980152126870937,-0.19731302925289226,1.0518537856062515,1.4676745982783537,-1.209113999789344,97.06427987748997,63.00582914043895
0.2525,-2.5304935364193977,1.6016812203131536,-0.2003138214954154,1.0553295892839705,1.4651296357743706,-1.1915272347876038,97.07675428137392,62.66730279162112
0.255,-2.5278507975686555,1.6053408553552468,-0.2032708001516588,1.058872471146738,1.4625765325781472,-1.1740630788924287,96.95428293479125,62.32904390638408
0.2575,-2.525199127407911,1.6089940561968787,-0.206184271278582,1.062474431026985,1.45998228839183,-1.1567211596159257,96.96120255463622,61.99098179950032
0.26,-2.5225383715802723,1.6126407596625536,-0.20905454002347848,1.0661408143030764,1.457378636261692,-1.1395011217058384,96.84391367614492,61.65317983556539
0.2625,-2.519868378532848,1.616280904320995,-0.2118819106283746,1.0698640051657944,1.4547352576599417,-1.1224025962065056,96.84558239600398,61.31557112883578
0.265,-2.517189000007073,1.6199144273139847,-0.21466668643335493,1.0736490095797744,1.4520813111423831,-1.105425230513256,96.73294239398814,60.97821557134585
0.2675,-2.514500090507375,1.6235412673986003,-0.2174091698808483,1.0774885870549251,1.4493889479632611,-1.0885686591116444,96.72963825679979,60.64104998476363
0.27,-2.511801507772581,1.6271613620266938,-0.2201096625188654,1.0813874132491534,1.4466849557831134,-1.07183253197502,96.6211522675143,60.304130878792336
0.2725,-2.5090931122646696,1.63077465014647,-0.22276846500517292,1.0853386126196998,1.443943760142483,-1.055216486939971,96.61312983473755,59.967398677104555
0.275,-2.506374767620517,1.6343810695130951,-0.2253858771104481,1.0893465408648706,1.4411899655678229,-1.0387201764922058,96.50833902341559,59.63090660981751
0.2775,-2.503646340161262,1.6379805592683447,-0.22796219772234244,1.093404675981534,1.4384000915918023,-1.0223432417301705,96.49583153150853,59.294598586842426
0.28,-2.500907699323918,1.6415730574643623,-0.23049772484855754,1.0975170650152362,1.435596732771837,-1.0060853375896655,96.39431060467626,58.958524671148346
0.28250000000000003,-2.498158717191639,1.6451585034386362,-0.23299275562079944,1.1016775273144679,1.4327583363529304,-0.9899461083429703,96.3775319353012,58.62263213532404
0.28500000000000003,-2.4953992689049525,1.6487368355343377,-0.23544758629777962,1.10588981329689,1.429905646630945,-0.973925211316654,96.27888684627523,58.28696799488806
0.28750000000000003,-2.492629232213009,1.6523079932865368,-0.23786251226906177,1.1101480709138725,1.427018885205846,-0.9580222938700702,96.25803332587148,57.951482755952284
0.29,-2.48984848786438,1.6558719153238404,-0.24023782805799093,1.1144557664904367,1.4241170934091538,-0.9422370156637839,96.16189915693904,57.61622051145184
0.2925,-2.487056919179209,1.6594285413805203,-0.2425738273254342,1.1188073634592928,1.4211821257563921,-0.9265690270588142,96.13715120001433,57.281134868158496
0.295,-2.4842544124196815,1.6629778103653607,-0.2448708028726411,1.1232060569206295,1.4182314564650933,-0.9110179899951522,96.04319020609277,56.946267124669994
0.2975,-2.4814408563828416,1.666519662213228,-0.2471290466448799,1.1276466124543694,1.4152484425208143,-0.8955835577514936,96.0147138155061,56.61157385345217
0.3,-2.4786161427509814,1.6700540361081324,-0.2493488497342314,1.1321319669846182,1.4122491163170374,-0.8802653944945862,95.92261361528973,56.27709368886371
0.3025,-2.4757801657047787,1.673580872186722,-0.25153050238312297,1.1366571748276901,1.4092182170073413,-0.8650631563382816,95.89056175170143,55.942786033358445
0.305,-2.4729328222539544,1.6771001099035685,-0.25367429398705776,1.1412249278326576,1.4061704507065127,-0.8499765096250497,95.80003365363527,55.60868698771088
0.3075,-2.4700740118702886,1.6806116895981014,-0.255780513098048,1.1458305556793105,1.4030918277949296,-0.8350051132228802,95.76454748516126,55.27475864906517
0.31,-2.467203636798993,1.6841155509910537,-0.2578494474272817,1.1504765181865175,1.3999958346604862,-0.8201486356003355,95.67532493657039,54.94103471472989
