t,x,y,ang,vx,vy,omega,thrust,torque
0.0,-4.9467523580442005,0.5685034210262474,-0.7240152406036916,-1.9722095135573772,-1.2179317121357625,5.349071658447247,150.5754881072794,-200.0
0.0025,-4.951648802591335,0.5654652562594616,-0.7107171636428483,-1.945014658773958,-1.2125463751954362,5.28941514953316,157.46175972973964,-200.0
0.005,-4.9564763777161325,0.5624425904211893,-0.6975680388196693,-1.9171170051611044,-1.205531907371073,5.229909884328086,149.76817668790207,-200.0
0.0075,-4.961236280876677,0.5594360162201855,-0.6845674885043842,-1.8908735048657168,-1.1996769657439912,5.170555479392565,154.5747877724533,-200.0
0.01,-4.965930140404363,0.5564456215969553,-0.6717151360246054,-1.8642841183982723,-1.1925882799363268,5.111351552259251,148.79232021311,-200.0
0.0125,-4.970559169119763,0.5534719047526857,-0.6590106056629014,-1.8390060831233181,-1.1863378732837915,5.052297721430444,152.269295822628,-200.0
0.015,-4.975124845035264,0.5505150267778238,-0.6464535226543753,-1.8136032327091285,-1.1791176232517129,4.993393606375633,147.79147077915547,-200.0
0.0175,-4.979628365528315,0.5475754275260096,-0.63404351318425,-1.789279514315275,-1.1725175001371735,4.934638827529044,150.39186764509623,-200.0
0.02,-4.984071095231907,0.5446533136637588,-0.6217802043854596,-1.7649715006246225,-1.1651299852681538,4.876033006287195,146.83913977940816,-200.0
0.0225,-4.988454201346039,0.5417490875718177,-0.6096632243362463,-1.741578784910627,-1.1582095135052812,4.817575765006456,148.84643262844486,-200.0
0.025,-4.992778958414686,0.5388629852157742,-0.5976922020577645,-1.718292842366349,-1.1506318040385057,4.759266727000613,145.9722832126908,-200.0
0.0275,-4.997046496879291,0.5359953840215431,-0.5858667675116898,-1.6958023083737823,-1.143410533665934,4.701105516538444,147.56938066300518,-200.0
0.03,-5.0012580167676,0.5331465392909347,-0.5741865515978343,-1.6734783254126107,-1.1356275125668505,4.643091758841298,145.20824847646247,-200.0
0.0325,-5.005414609394533,0.5303168112620927,-0.5626511861517688,-1.6518590982864114,-1.1281189053434901,4.5852250800806775,146.5163859485114,-200.0
0.035,-5.009517411242928,0.5275064682745978,-0.5512603039424502,-1.630445871442708,-1.1201203921370617,4.527505107375831,144.5536703921423,-200.0
0.0375,-5.013567474317198,0.5247158583480627,-0.5400135386698549,-1.6096668208872134,-1.1123340167710474,4.46993146879135,145.6551149578113,-200.0
0.04,-5.017565879639857,0.5219452587613649,-0.5289105249626189,-1.5891197044839365,-1.1041130415294083,4.412503793334771,144.00928745590744,-199.78723173948663
0.0425,-5.021513640830992,0.5191950085842935,-0.5179508370521233,-1.5691503660889103,-1.0960559071447737,4.355270749055002,144.96101664447946,-199.2775471052396
0.045,-5.025411789643508,0.516465391301105,-0.5071339034009559,-1.5494297316358978,-1.0876076397169125,4.298300274784915,143.57258954290876,-198.7118875836465
0.0475,-5.029261302799606,0.51375673924389,-0.4964590522835943,-1.5302407773906241,-1.079285023714526,4.241604605746445,144.414721274662,-198.09363053943386
0.05,-5.033063167732056,0.5110693402422315,-0.4859255823986682,-1.5113110014311164,-1.070606089499501,4.185195167738804,143.239238635152,-197.42056848241543
0.0525,-5.036818326045185,0.508403521416601,-0.47553276328029553,-1.4928744871818727,-1.0620220762664165,4.1290838663688225,144.00045884860754,-196.69558078888505
0.055,-5.040527724920318,0.5057595736391605,-0.46527983556620994,-1.4747032345835687,-1.053110119539291,4.0732819134309315,143.00402450714503,-195.9169004596474
0.0575,-5.0441922726928325,0.503137819889841,-0.4551660113909243,-1.4569926662096686,-1.04426795627287,4.017800899546876,143.70513490364272,-195.08701170190136
0.06,-5.047812879681356,0.5005385531569856,-0.4451904746651362,-1.4395503381296095,-1.0351213452100838,3.9626518134017914,142.8614030442068,-194.20449811299355
0.0625,-5.0513904227645,0.4979620930482448,-0.4353523814544369,-1.422540649247572,-1.026023678972373,3.9078459422694674,143.5176621576122,-193.27152548302678
0.065,-5.05492577826777,0.49540873399867214,-0.4256508602662369,-1.4057999617976125,-1.0166413045041354,3.853394045643827,142.8057873347419,-192.28696018664695
0.0675,-5.058419793340273,0.49287879280397273,-0.41608501241659296,-1.389467450903406,-1.0072903449220096,3.7993071170149624,143.42849820105144,-191.25270789318287
0.07,-5.061873312777923,0.49037256485464586,-0.40665391232193787,-1.3734031059829535,-0.9976714812796146,3.745595682789655,142.83171271094838,-190.16786573022088
0.0725,-5.065287155620389,0.4878903645492877,-0.39735660785583654,-1.3577253543971384,-0.988069114348548,3.6922704507786395,143.4293184471983,-189.03412424559903
0.075,-5.0686621372731375,0.4854324878682058,-0.38819212064352066,-1.3423137770042821,-0.978213320806584,3.639341712014073,142.9339267914779,-187.85077079053835
0.0775,-5.071999050171787,0.482999247124106,-0.3791594464098702,-1.327269559864712,-0.9683611899022936,3.5868198956867037,143.51277854472946,-186.61931605339078
0.08,-5.07529868220684,0.4805909386113058,-0.37025755527525994,-1.3124886847982309,-0.9582682405526863,3.5347150563684706,142.61621404951126,-185.3580689213018
0.0825,-5.078561855705207,0.47820772958642754,-0.36148539753245545,-1.2981017882399193,-0.9482824105425247,3.483033003370861,142.1503889965613,-184.10755908063993
0.085,-5.081789499037962,0.4758494713552115,-0.3528419206507307,-1.2840637665901393,-0.9383083537351659,3.4317701901338853,141.2883586462782,-182.86845895866455
0.08750000000000001,-5.084982519757713,0.47351601223674583,-0.34432608114832114,-1.2704027730949252,-0.9284438723768053,3.3809229241102083,140.84610529105188,-181.6409879074957
0.09,-5.088141807436832,0.47120719549120166,-0.3359368448263447,-1.2570765590456336,-0.9185951512030198,3.3304874715584716,140.04454642684163,-180.42465877188792
0.0925,-5.091268228825905,0.46892287010729483,-0.3276731866680288,-1.2441088438160444,-0.9088514781678235,3.2804602204811304,139.62463966347073,-179.21964807593963
0.095,-5.0943626334353915,0.4666628806198389,-0.31953409072602035,-1.2314623716149649,-0.899127080857043,3.230837527353259,138.8779566397008,-178.02552051287714
0.0975,-5.097425849439675,0.4644270767104324,-0.31151855002476425,-1.2191570883405165,-0.8895036582377092,3.181615858215166,138.47911075901976,-176.84241633185573
0.1,-5.100458688480407,0.4622153041156708,-0.3036255664528228,-1.207160048730507,-0.8799026300665698,3.1327916557424587,137.78235914623474,-175.66994513876875
0.10250000000000001,-5.103461942184869,0.4600274132246966,-0.29585415066827275,-1.1954879725616743,-0.8703988890483856,3.0843614616061226,137.40327203618494,-174.50821633188556
0.105,-5.106436386318981,0.4578632509142744,-0.28820332199557963,-1.1841116524485338,-0.8609203235580791,3.036321801031107,136.7520541656618,-173.35687860314164
0.1075,-5.1093827778165295,0.4557226682893691,-0.28067210833387696,-1.1730450398698362,-0.8515356893657698,2.9886692890200375,136.39143712027186,-172.21601503046492
0.11,-5.11230185838414,0.4536055133140635,-0.2732595460580045,-1.162262180767496,-0.8421787215244845,2.9414005300098136,135.78181882119733,-171.08530845629045
0.1125,-5.115194351958928,0.451511637812664,-0.2659646799295341,-1.151774644393778,-0.8329126171038974,2.8945122101433,135.4384162423526,-169.9648194532345
0.115,-5.118060967848155,0.4494408907906126,-0.2587865630016322,-1.141559317015216,-0.8236764179326447,2.8480010100042223,134.86685980217345,-168.8542608027821
0.11750000000000001,-5.120902398548833,0.4473931247915201,-0.25172425653270086,-1.1316257135694767,-0.814528266694685,2.801863684788973,134.53946178987297,-167.75367380776157
0.12,-5.123719322489695,0.44536818982170234,-0.24477682989476782,-1.121953206378572,-0.8054120390022287,2.756096988400973,134.00277146896067,-166.66279757205754
0.1225,-5.126512402158564,0.44336593914138284,-0.23794336048961612,-1.112549536322766,-0.7963812668653096,2.710697743103729,133.69022141235672,-165.58165688978187
0.125,-5.1292822865025,0.44138622372165714,-0.23122293366044147,-1.1033962562185267,-0.7873842418288383,2.6656627735026173,133.1854987700676,-164.51001406415114
0.1275,-5.132029609318336,0.43942889753469555,-0.22461464261035047,-1.0944995736986818,-0.778470278732299,2.6209889670369515,132.8866974390396,-163.44787974920766
0.13,-5.134754991357553,0.4374938124838404,-0.21811758831705402,-1.0858429572904065,-0.7695917131262897,2.5766732165816335,132.4113043968686,-162.39503673790296
0.1325,-5.137459038942921,0.4355808232470853,-0.21173087945362215,-1.0774312892246325,-0.7607939941420044,2.5327124729500174,131.9683370782465,-161.3475560538446
0.135,-5.140142356014611,0.43368973470035654,-0.20545363117402415,-1.0692578394488652,-0.752071512614311,2.489104600222923,131.3572818035854,-160.3014286233606
0.1375,-5.142805542586253,0.43182030454690407,-0.19928496280976993,-1.0613261439326525,-0.7434676166603137,2.445848391893828,130.92680324779187,-159.2567123961314
0.14,-5.1454491852640265,0.4299722889078188,-0.19322399672151272,-1.0536220330280925,-0.7349402236920004,2.4029426311589517,130.3416620805942,-158.21328751932722
0.14250000000000002,-5.148073856222041,0.42814544655036196,-0.18726985827351375,-1.046148043523235,-0.7265292996859828,2.3603861319226773,129.92264895482353,-157.1712020920771
0.145,-5.150680114717159,0.42633953482365244,-0.1814216758053759,-1.038891386906079,-0.7181960145994245,2.318177700010704,129.36126315827727,-156.1303503108737
0.1475,-5.15326850621544,0.4245543135474769,-0.17567858060785743,-1.0318537414949671,-0.7099772207715934,2.2763161686614835,128.95275849270547,-155.09077180536013
0.15,-5.155839563730054,0.42278954127211793,-0.1700397068963433,-1.0250235396139105,-0.7018370841455911,2.234800364937786,128.41314639447583,-154.0523731792388
0.1525,-5.158393807078981,0.4210449788582385,-0.1645041917879244,-1.0184017238606342,-0.6938095881426148,2.193629140401721,128.01425668922036,-153.0151867957334
0.155,-5.160931744067906,0.419320386032169,-0.15907117527647296,-1.0119778066074496,-0.685861660447963,2.1528013420680012,127.49459656913086,-151.97913022206052
0.1575,-5.163453869862108,0.41761552468377167,-0.15373980021091058,-1.0057521019390345,-0.678024639333273,2.112315838873262,127.1044886823223,-150.94422960418552
0.16,-5.16596066803335,0.4159301556918552,-0.14850921227176692,-0.9997150784796286,-0.6702679997248723,2.0721714965956273,126.60310394055305,-149.91041220201018
0.1625,-5.168452610031177,0.41426404196387856,-0.14337855995056548,-0.9938665155032557,-0.6626206399007707,2.0323672006536357,126.2210018983785,-148.87769885974834
0.165,-5.170930156110372,0.4126169455089432,-0.13834699452775745,-0.9881977289403119,-0.6550543851351867,1.992901834487458,125.73634811365382,-147.84602541031518
0.1675,-5.173393754888837,0.41098863024065335,-0.13341367005315954,-0.9827080451790919,-0.6475958822064516,1.9537742991570244,125.36152993842393,-146.81540819519785
0.17,-5.175843844170085,0.40937885927747053,-0.1285777433251645,-0.977389531528754,-0.6402191256610272,1.9149834947420146,124.89218350220298,-145.78579063322377
0.17250000000000001,-5.178280850576535,0.4077873975279016,-0.12383837387217099,-0.9722411331167673,-0.6329486842552952,1.876528337151308,124.52397812192626,-144.7571852603723
0.17500000000000002,-5.180705190279735,0.4062140091999801,-0.11919472393298154,-0.967255584142927,-0.6257605550304854,1.838407742152968,124.06862619483773,-143.72954221082603
0.1775,-5.1831172686992915,0.404658460186123,-0.11464595843916892,-0.9624315110709927,-0.6186773885872974,1.8006206397567524,123.70641047424924,-142.70287082310182
0.18,-5.185517481151989,0.4031205157652028,-0.1101912449965807,-0.9577622405733053,-0.6116770306781648,1.7631659605327932,123.26384205866673,-141.67712717882404
0.1825,-5.187906212607805,0.40159994280283484,-0.10582975386859059,-0.953246135121339,-0.6047803612159286,1.7260426478846438,122.90729128956241,-140.65237760401115
0.185,-5.190283838259475,0.4000965077096736,-0.10156065797582989,-0.9488770417678173,-0.5979668697928611,1.689249632607992,122.48475536113669,-139.63055145364274
0.1875,-5.192650723075505,0.3986099809929548,-0.09738313346462497,-0.944652905956121,-0.5912537848752341,1.6527854035380818,122.13744486586609,-138.612586926828
0.19,-5.195007222461141,0.3971401340537909,-0.09329636052482863,-0.9405681570589216,-0.5846231679688203,1.6166482371084052,121.72537942998669,-137.59842370363637
0.1925,-5.19735368226298,0.3956867396535516,-0.08929952363236027,-0.9366206940269235,-0.5780918647251866,1.5808364280244442,121.38257823585504,-136.5880364928729
0.195,-5.199690439212826,0.3942495701980753,-0.08539181151367975,-0.9328053491755341,-0.5716433190186269,1.5453482811440442,120.98004635701682,-135.5813693513755
0.1975,-5.202017820825743,0.39282839937950037,-0.08157241711160426,-0.9291198949800434,-0.5652930533968936,1.5101821185162347,120.64128652226857,-134.5783960352675
0.2,-5.204336145797427,0.3914230005930635,-0.07784053755094471,-0.9255595237983241,-0.5590257877862971,1.475336272492657,120.24742458043025,-133.57906452739795
0.2025,-5.206645723932345,0.39003314845182935,-0.07419537410535354,-0.9221219110868932,-0.5528558235949107,1.4408090916415803,119.91227432452146,-132.58334790797463
0.20500000000000002,-5.208946856500269,0.3886586173259156,-0.07063613216406807,-0.9188025715019709,-0.5467690585479018,1.4065989349224348,119.52628670562008,-131.59119768790234
0.20750000000000002,-5.211239836190344,0.3872991827398623,-0.06716202119974887,-0.9155991090045825,-0.5407786671399578,1.3727041766306871,119.1943482293239,-130.60258650967359
0.21,-5.2135249474317655,0.3859546200249138,-0.06377225473627884,-0.9125073273582605,-0.5348716340908525,1.3391232014886236,118.81550247568512,-129.61746906095752
0.2125,-5.215802466370122,0.3846247056080163,-0.06046605031755426,-0.9095247810936151,-0.5290600940569781,1.3058544087570823,118.48640992797829,-128.63581775086624
0.215,-5.218072661156611,0.3833092157685061,-0.05724262947629217,-0.9066475339096186,-0.5233320348360762,1.2728962081142163,118.11403229337122,-127.65759013377135
0.2175,-5.220335791943444,0.3820079278270357,-0.0541012177037387,-0.9038731099328442,-0.5176986317073047,1.2402470230527534,117.78744987265662,-126.68275856002201
0.22,-5.222592111145477,0.38072061899867693,-0.0510410444194409,-0.9011978071719052,-0.5121487980022527,1.207905287434846,117.42092123515206,-125.71128317704323
0.2225,-5.224841863451884,0.37944706748944573,-0.04806134294183895,-0.8986191357075657,-0.5066928239637383,1.175869448278271,117.09654141276289,-124.74313642498409
0.225,-5.227085286063593,0.3781870514384329,-0.04516135045896178,-0.8961336053589614,-0.5013204768112011,1.1441379628898918,116.73529350541725,-123.77828080281573
0.2275,-5.229322608718779,0.37694034992901726,-0.042340307999871776,-0.8937387261784764,-0.4960412304273312,1.1127093011307814,116.41283536000562,-122.81668896623067
0.23,-5.231554053909109,0.3757067420131952,-0.03959746040624638,-0.8914312000514567,-0.49084563973342954,1.0815819430435085,116.05634728517212,-121.85832555259265
0.2325,-5.233779836916911,0.37448600764403683,-0.036932056304645605,-0.8892085489676912,-0.4857424256846575,1.0507543806743618,115.73555493736814,-120.90316353891767
0.23500000000000001,-5.236000166012851,0.37327792677589905,-0.03434334807894446,-0.8870676495594971,-0.48072286977277956,1.0202251161208227,115.39793834865843,-119.95122056809524
0.23750000000000002,-5.238215242350291,0.37208228477860805,-0.03183059185811027,-0.8850059253731102,-0.47579135577451404,0.9899926512116459,115.21408324451009,-119.00294060975028
0.24,-5.240425259002298,0.37089890935312647,-0.02939304763974856,-0.8830195063420441,-0.47090964347979586,0.9600553892492132,114.91785513440054,-118.05839301448684
0.2425,-5.242630402146616,0.369727640676995,-0.02702997942813482,-0.8811067181653677,-0.46610597901787215,0.9304117216002314,114.7317509339651,-117.11755338306507
0.245,-5.244830851744893,0.36856831784871197,-0.02474065523699545,-0.8792642848308472,-0.4613529905535333,0.9010600493331364,114.4420374228122,-116.18038133676384
0.2475,-5.247026781455092,0.3674207816362657,-0.02252434706067869,-0.8774904183258417,-0.4566767038969823,0.8719987868763923,114.25376437526504,-115.2468515622829
0.25,-5.249218358896587,0.3662848718346751,-0.020380330845138975,-0.8757820952770838,-0.45205188193726775,0.8432263585123944,113.96996043600572,-114.31692644219373
0.2525,-5.2514057455922,0.36516042979985625,-0.01830788645978711,-0.8741374436309821,-0.4475025033407441,0.8147412011883001,113.77959641806575,-113.39058003582353
0.255,-5.253589097200837,0.3640472960125231,-0.01630629766923395,-0.8725536610832604,-0.4430052992209791,0.7865417617927022,113.50114858668887,-112.46777715859871
0.2575,-5.255768563484618,0.3629453124140125,-0.014374852105804085,-0.8710288168668353,-0.4385823609137973,0.7586264992609275,113.3087696839795,-111.54849148593402
0.26,-5.2579442885136185,0.3618543201605551,-0.012512841242010792,-0.8695603025064216,-0.43421223411462373,0.7309938825024757,113.03517238908705,-110.63268998157884
0.2625,-5.260116410654154,0.3607741617764185,-0.010719560363717812,-0.8681461500616373,-0.4299152702870428,0.7036423919226138,112.8408533960599,-109.72034614283066
0.265,-5.262285062749606,0.3597046790837755,-0.00899430854331946,-0.8667839214244871,-0.4256716879525022,0.6765705178874022,112.57164554369504,-108.81142883556947
0.2675,-5.264450372126437,0.3586457151873551,-0.007336388613535364,-0.8654716297239446,-0.4215002347398863,0.6497767617658746,112.37546038881715,-107.90591155200408
0.27,-5.266612460754553,0.35759711256626087,-0.005745107141271305,-0.8642069870495447,-0.41738267122744743,0.6232596348358825,112.11022218141167,-107.00376484738526
0.2725,-5.268771445268099,0.35655871490323593,-0.004219774402032105,-0.8629880029756352,-0.4133362666928233,0.5970176589358738,111.91224428379799,-106.10496235340459
0.275,-5.270927437108337,0.35553036532582927,-0.0027597043544403004,-0.8618125224830995,-0.4093442031535422,0.5710493657290718,111.650594254352,-105.20947613103333
0.2775,-5.273080542556676,0.35451190809237515,-0.001364214615252645,-0.8606785644798078,-0.40542238726898666,0.5453532970405813,111.45089681760686,-104.31728007134886
0.28,-5.275230862862649,0.3535031869708721,-3.262643451508885e-05,-0.8595840920184877,-0.4015553112560725,0.5199280044098289,111.19248906216436,-103.42834758269835
0.28250000000000003,-5.27737849428697,0.35250404679284786,0.0012357353288313553,-0.858527144073387,-0.3977576258832969,0.49477204917719286,110.99114531090636,-102.54265291410454
0.28500000000000003,-5.279523528216847,0.3515143319592106,0.002441542231179624,-0.8575057891049892,-0.394015030987421,0.4698840022653997,110.73566690405143,-101.66017068490845
0.28750000000000003,-5.281666051217174,0.3505338878723103,0.0035854622680753616,-0.8565180950231805,-0.39034101985785985,0.4452624440698806,110.57033993242973,-100.78101323778148
0.29,-5.283806145181491,0.34956257130063434,0.004668159858174357,-0.8555622637020812,-0.3867130139031518,0.42090593269275356,110.47352540085136,-99.90572131944565
0.2925,-5.285943887604274,0.34860028867151743,0.005690295664106352,-0.8546365723577489,-0.383113863582123,0.39681290526224283,110.3280266709573,-99.03432653709811
0.295,-5.288079351551974,0.347646952657684,0.006652526437166816,-0.8537391961345806,-0.37955571606449895,0.37298179558411265,110.2295923512728,-98.16679783529213
0.2975,-5.290212605724931,0.34670247549759886,0.00755550502708181,-0.8528684709036138,-0.37602677666241763,0.3494110485923623,110.08626633661348,-97.30310588343029
0.3,-5.2923437145100145,0.3457667701800124,0.008399880409296156,-0.8520226064354496,-0.3725382350852203,0.3260991199234762,109.98628973316553,-96.44322019293126
0.3025,-5.294472738053223,0.34483974930521233,0.009186297712029477,-0.851200003414615,-0.36907921707415026,0.3030444761561782,109.84491947557987,-95.58711229957375
0.305,-5.296599732316148,0.3439213261766536,0.00991539824301364,-0.8503989107502284,-0.36566002997517544,0.2802455943171234,109.74347795415339,-94.73475231928774
